1.0654200315475464
0.8375430107116699
0.35179001092910767
-0.09073799848556519
-0.32796400785446167
-0.3583959937095642
-0.27019599080085754
-0.16903500258922577
-0.10751199722290039
-0.08028099685907364
-0.06663099676370621
-0.05465099960565567
-0.040383998304605484
-0.022646000608801842
-0.0008779999916441739
0.025262000039219856
0.05587499961256981
0.09074100106954575
0.12925300002098083
0.17037400603294373
0.21264700591564178
0.25425198674201965
0.29311999678611755
0.3270939886569977
0.3541249930858612
0.3724749982357025
0.38089901208877563
0.37878599762916565
0.3662300109863281
0.34402400255203247
0.3135789930820465
0.27677199244499207
0.23575900495052338
0.19276399910449982
0.1498900055885315
0.10895299911499023
0.07137700170278549
0.038141001015901566
0.009781000204384327
-0.013566999696195126
-0.0320889987051487
-0.046202000230550766
-0.05646900087594986
-0.06351099908351898
-0.06795100122690201
-0.07035999745130539
-0.0712369978427887
-0.07099399715662003
-0.06995899975299835
-0.06837999820709229
-0.06644000113010406
-0.06426800042390823
-0.06195300072431564
-0.05955500155687332
-0.05705299973487854
-0.05454700067639351
-0.052053000777959824
-0.04957300052046776
-0.04710499942302704
-0.04465100169181824
-0.04220899939537048
-0.03978100046515465
-0.037365999072790146
-0.03496500104665756
-0.03257700055837631
-0.030202999711036682
-0.027842000126838684
-0.025496000424027443
-0.023163000121712685
-0.020841000601649284
-0.01852799952030182
-0.016214000061154366
-0.013873999938368797
-0.011454000137746334
-0.008841999806463718
-0.0058189998380839825
-0.0019970000721514225
0.0032629999332129955
0.010905000381171703
0.02218399941921234
0.03854399919509888
0.06132600083947182
0.09130299836397171
0.12813399732112885
0.16989299654960632
0.21293699741363525
0.25226399302482605
0.28242000937461853
0.29874199628829956
0.29855799674987793
0.28193598985671997
0.2516759932041168
0.21257400512695312
0.170197993516922
0.12963299453258514
0.09452500194311142
0.06642899662256241
0.04359700158238411
0.018137000501155853
-0.024396000429987907
-0.08946099877357483
-0.14336399734020233
-0.10861700028181076
0.09624200314283371
0.49351000785827637
0.9506149888038635
1.1729300022125244
0.9598209857940674
0.47453200817108154
0.039824001491069794
-0.17782199382781982
-0.18750199675559998
-0.09125000238418579
0.002788000041618943
0.053279001265764236
0.0741489976644516
0.08595000207424164
0.09804899990558624
0.11315499991178513
0.1321530044078827
0.1555349975824356
0.18355199694633484
0.2161339968442917
0.2528049945831299
0.2926180064678192
0.33414000272750854
0.3755030035972595
0.41451698541641235
0.4488449990749359
0.4762299954891205
0.494733989238739
0.502951979637146
0.5001890063285828
0.4865419864654541
0.4628959894180298
0.43082499504089355
0.392410010099411
0.35001200437545776
0.3060309886932373
0.2626799941062927
0.2218170017004013
0.18482999503612518
0.15260100364685059
0.12552499771118164
0.10358399897813797
0.0864420011639595
0.0735509991645813
0.06425800174474716
0.05788499861955643
0.05378900095820427
0.05140500143170357
0.050262998789548874
0.04998999834060669
0.05030199885368347
0.05099400132894516
0.051920000463724136
0.05298199877142906
0.05413199961185455
0.055369000881910324
0.05657799914479256
0.057760998606681824
0.05891700088977814
0.0600459985435009
0.06114799901843071
0.062224000692367554
0.06327299773693085
0.06429500132799149
0.06529100239276886
0.06626100093126297
0.06720499694347382
0.068122997879982
0.0690160021185875
0.06988400220870972
0.07073099911212921
0.07156600058078766
0.0724089965224266
0.0733100026845932
0.07437899708747864
0.0758339986205101
0.0780780017375946
0.08178699761629105
0.08798400312662125
0.09803900122642517
0.1135220006108284
0.1358419954776764
0.16568699479103088
0.20238099992275238
0.24338899552822113
0.28428900241851807
0.3193809986114502
0.34290599822998047
0.35054799914360046
0.3406729996204376
0.3148390054702759
0.2773500084877014
0.2340420037508011
0.19076700508594513
0.15210600197315216
0.12051499634981155
0.09525000303983688
0.06951399892568588
0.028519000858068466
-0.03657500073313713
-0.09438899904489517
-0.06326200067996979
0.14495299756526947
0.5504909753799438
0.995212972164154
1.1570099592208862
0.8797919750213623
0.381521999835968
-0.024853000417351723
-0.20543800294399261
-0.1902189999818802
-0.08930599689483643
-0.0032629999332129955
0.03907199949026108
0.055867999792099
0.06604299694299698
0.07729999721050262
0.09179499745368958
0.11030100286006927
0.1332699954509735
0.16089899837970734
0.19304999709129333
0.22915500402450562
0.26816698908805847
0.3085539937019348
0.348363995552063
0.38534799218177795
0.41715899109840393
0.4415760040283203
0.4567449986934662
0.4613969922065735
0.4549979865550995
0.437824010848999
0.4109269976615906
0.3760190010070801
0.3352760076522827
0.29109901189804077
0.2458759993314743
0.20176200568675995
0.16052000224590302
0.12342700362205505
0.09124799817800522
0.06427299976348877
0.042396001517772675
0.025217000395059586
0.012153999879956245
0.00253499997779727
-0.004317000042647123
-0.00902900006622076
-0.012144000269472599
-0.01411100011318922
-0.015278000384569168
-0.015907999128103256
-0.01619100011885166
-0.016256000846624374
-0.0161920003592968
-0.016042999923229218
-0.015809999778866768
-0.015589999966323376
-0.015382999554276466
-0.015189000405371189
-0.015007000416517258
-0.014836999587714672
-0.014677999541163445
-0.014530999585986137
-0.014394000172615051
-0.014267999678850174
-0.014151999726891518
-0.014045000076293945
-0.013946999795734882
-0.013857999816536903
-0.013775999657809734
-0.013694999739527702
-0.013604000210762024
-0.013476000167429447
-0.013244000263512135
-0.012769999913871288
-0.01178400032222271
-0.009800000116229057
-0.006031000055372715
0.0006730000022798777
0.011783000081777573
0.028870999813079834
0.05318199843168259
0.08500800281763077
0.1230660006403923
0.16412900388240814
0.2032019942998886
0.23437300324440002
0.2521989941596985
0.25318700075149536
0.23683300614356995
0.2057960033416748
0.1651269942522049
0.12086699903011322
0.07855500280857086
0.04208799824118614
0.012923000380396843
-0.011512000113725662
-0.04125500097870827
-0.09199000149965286
-0.16132000088691711
-0.19631800055503845
-0.1051969975233078
0.18487200140953064
0.6374620199203491
1.008929967880249
0.9926570057868958
0.5890460014343262
0.09442999958992004
-0.2412559986114502
-0.3525420129299164
-0.29988500475883484
-0.19506199657917023
-0.11872299760580063
-0.08324400335550308
-0.06828100234270096
-0.05779699981212616
-0.045743998140096664
-0.030400000512599945
-0.011086000129580498
0.012609999626874924
0.040862999856472015
0.0735279992222786
0.11007100343704224
0.14950799942016602
0.19040900468826294
0.23094899952411652
0.26901599764823914
0.3023819923400879
0.32890498638153076
0.3467470109462738
0.3545739948749542
0.35170799493789673
0.3382120132446289
0.3148840069770813
0.283174991607666
0.24502499401569366
0.2026659995317459
0.15839800238609314
0.11438000202178955
0.07246500253677368
0.03408600017428398
0.00020700000459328294
-0.02867100015282631
-0.05245799943804741
-0.07138799875974655
-0.08592499792575836
-0.09666600078344345
-0.10425800085067749
-0.10933399945497513
-0.11247000098228455
-0.11415699869394302
-0.11479700356721878
-0.11470299959182739
-0.11410900205373764
-0.11318500339984894
-0.11204800009727478
-0.11077699810266495
-0.10941199958324432
-0.10795199871063232
-0.10649099946022034
-0.10502900183200836
-0.1035659983754158
-0.10209999978542328
-0.10063300281763077
-0.09916400164365768
-0.09769300371408463
-0.096220001578331
-0.09474500268697739
-0.0932679995894432
-0.09178800135850906
-0.09030500054359436
-0.0888189971446991
-0.08732999861240387
-0.08583299815654755
-0.08432099968194962
-0.08277600258588791
-0.08115199953317642
-0.07935400307178497
-0.07719200104475021
-0.0743120014667511
-0.07012300193309784
-0.0637189969420433
-0.053860001266002655
-0.039073001593351364
-0.01792600005865097
0.010503999888896942
0.046045999974012375
0.08691400289535522
0.12951000034809113
0.16875100135803223
0.19899499416351318
0.21535399556159973
0.21498900651931763
0.19792500138282776
0.16706299781799316
0.12738199532032013
0.08463700115680695
0.0440250001847744
0.009182999841868877
-0.018516000360250473
-0.04139300063252449
-0.06858900189399719
-0.11517400294542313
-0.18235599994659424
-0.22639200091362
-0.16248099505901337
0.08698900043964386
0.5181599855422974
0.9449930191040039
1.0566099882125854
0.7441509962081909
0.24422000348567963
-0.14717799425125122
-0.3137750029563904
-0.2911440134048462
-0.18787699937820435
-0.10054399818181992
-0.05636899918317795
-0.03763800114393234
-0.0257399994879961
-0.012915000319480896
0.0030529999639838934
0.022948000580072403
0.047224000096321106
0.07609999924898148
0.10947900265455246
0.14686599373817444
0.18731099367141724
0.2293969988822937
0.27128899097442627
0.3108479976654053
0.3457939922809601
0.3739260137081146
0.3933449983596802
0.402662992477417
0.4011699855327606
0.3889159858226776
0.3667159974575043
0.3360559940338135
0.29892799258232117
0.2576189935207367
0.21447600424289703
0.17169399559497833
0.1311420053243637
0.09425000101327896
0.06196099892258644
0.034742001444101334
0.012645999900996685
-0.004602000117301941
-0.01749899983406067
-0.026666000485420227
-0.03276799991726875
-0.03644400089979172
-0.03826799988746643
-0.03872799873352051
-0.03821299970149994
-0.0370279997587204
-0.035395000129938126
-0.03347399830818176
-0.03137600049376488
-0.029172999784350395
-0.026843000203371048
-0.02450600080192089
-0.02218399941921234
-0.01987599954009056
-0.017581000924110413
-0.015301000326871872
-0.013035999611020088
-0.010785000398755074
-0.008549000136554241
-0.006326999980956316
-0.004120999947190285
-0.0019290000200271606
0.0002469999890308827
0.00240899994969368
0.004554999992251396
0.006688999943435192
0.008813999593257904
0.010941999964416027
0.013101999647915363
0.0153609998524189
0.017858000472187996
0.020862000063061714
0.024848999455571175
0.030587000772356987
0.039191000163555145
0.05208100005984306
0.07078900188207626
0.09654899686574936
0.12972299754619598
0.16920199990272522
0.21202899515628815
0.25350698828697205
0.28794100880622864
0.3098919987678528
0.3155980110168457
0.30405300855636597
0.2773149907588959
0.23993000388145447
0.19769099354743958
0.15620100498199463
0.11970099806785583
0.09030099958181381
0.0668409988284111
0.04198199883103371
0.0008970000199042261
-0.06367699801921844
-0.11834900081157684
-0.08198300004005432
0.130840003490448
0.5384010076522827
0.9859309792518616
1.1585789918899536
0.893248975276947
0.39726799726486206
-0.00802099984139204
-0.18485000729560852
-0.16508500277996063
-0.06224599853157997
0.02284500002861023
0.06407800316810608
0.0810680016875267
0.09234300255775452
0.1050499975681305
0.1211479976773262
0.14137500524520874
0.16616399586200714
0.1956769973039627
0.2297070026397705
0.2675969898700714
0.3081820011138916
0.34980401396751404
0.3903850018978119
0.42757999897003174
0.4589889943599701
0.4824010133743286
0.4960480034351349
0.49881500005722046
0.49038100242614746
0.4712660014629364
0.44276899099349976
0.40681999921798706
0.3657509982585907
0.32204800844192505
0.27809399366378784
0.23596900701522827
0.19729900360107422
0.1631850004196167
0.13420799374580383
0.1104860007762909
0.09176699817180634
0.07754400372505188
0.0671669989824295
0.0599370002746582
0.05517999827861786
0.05229000002145767
0.05076000094413757
0.050182998180389404
0.05025099962949753
0.05073700100183487
0.05148100107908249
0.052375998347997665
0.0533519983291626
0.05442399904131889
0.05548499897122383
0.0565200001001358
0.05752699822187424
0.058508001267910004
0.05946100130677223
0.06038900092244148
0.06128900125622749
0.062164001166820526
0.06301199644804001
0.06383399665355682
0.06463100016117096
0.06540100276470184
0.06614699959754944
0.06686899811029434
0.06757199764251709
0.06826300173997879
0.0689689964056015
0.06974799931049347
0.07072500139474869
0.07215400040149689
0.07449500262737274
0.07851599901914597
0.08535200357437134
0.09648499637842178
0.11353400349617004
0.13781599700450897
0.16971099376678467
0.20799100399017334
0.2494180053472519
0.2889060080051422
0.32040101289749146
0.33832499384880066
0.33913901448249817
0.3224189877510071
0.29100799560546875
0.2501719892024994
0.20611600577831268
0.16441600024700165
0.12887200713157654
0.10065300017595291
0.07641100138425827
0.044690001755952835
-0.009992999956011772
-0.07868900150060654
-0.09791100025177002
0.02788499929010868
0.36025598645210266
0.8228579759597778
1.1259009838104248
1.001431941986084
0.5448639988899231
0.07574400305747986
-0.19674299657344818
-0.24943499267101288
-0.16853700578212738
-0.06803199648857117
-0.0075599998235702515
0.017616000026464462
0.029363000765442848
0.03982200101017952
0.052824001759290695
0.06949999928474426
0.09040900319814682
0.11587200313806534
0.1459289938211441
0.18024399876594543
0.21803399920463562
0.25804099440574646
0.29855599999427795
0.33750998973846436
0.37262600660324097
0.40162399411201477
0.42245298624038696
0.43351298570632935
0.4338420033454895
0.4232339859008789
0.40227100253105164
0.37225401401519775
0.3350610136985779
0.2929370105266571
0.24826300144195557
0.20332500338554382
0.16012300550937653
0.12023600190877914
0.084757000207901
0.05428599938750267
0.028978999704122543
0.008636999875307083
-0.007193999830633402
-0.019121000543236732
-0.027809999883174896
-0.03391699865460396
-0.03804200142621994
-0.040695998817682266
-0.04229699820280075
-0.04316699877381325
-0.04354799911379814
-0.043613001704216
-0.043480999767780304
-0.0432329997420311
-0.04290800169110298
-0.04250599816441536
-0.042118001729249954
-0.04174099862575531
-0.04137599840760231
-0.041023001074790955
-0.04067999869585037
-0.040348999202251434
-0.04002700001001358
-0.0397149994969368
-0.039413001388311386
-0.03911900147795677
-0.03883500024676323
-0.0385579988360405
-0.03828899934887886
-0.03802499920129776
-0.037762999534606934
-0.03748900070786476
-0.03717700019478798
-0.03676300123333931
-0.03611199930310249
-0.03496300056576729
-0.03284899890422821
-0.029009999707341194
-0.022336000576615334
-0.011401999741792679
0.0053449999541044235
0.029170000925660133
0.060472000390291214
0.09816599637269974
0.13929200172424316
0.17911800742149353
0.21188600361347198
0.23209699988365173
0.2359679937362671
0.22251899540424347
0.1938830018043518
0.15470300614833832
0.11085300147533417
0.06796599924564362
0.0302559994161129
-0.00026500000967644155
-0.02501099929213524
-0.05187999829649925
-0.09608499705791473
-0.16317600011825562
-0.21529799699783325
-0.16798099875450134
0.062490999698638916
0.48303699493408203
0.915992021560669
1.0411180257797241
0.7436190247535706
0.2442449927330017
-0.1703609973192215
-0.3712649941444397
-0.3763810098171234
-0.2809250056743622
-0.18497100472450256
-0.1304129958152771
-0.10710199922323227
-0.09507600218057632
-0.08389800041913986
-0.07022599875926971
-0.05302499979734421
-0.03177199885249138
-0.006151000037789345
0.023910999298095703
0.05816299840807915
0.09596800059080124
0.1362680047750473
0.17759199440479279
0.2181210070848465
0.25579899549484253
0.2884959876537323
0.3142000138759613
0.33121100068092346
0.3383229970932007
0.3349570035934448
0.32122600078582764
0.2979309856891632
0.26647499203681946
0.22871899604797363
0.1867929995059967
0.14289799332618713
0.09911199659109116
0.05723600089550018
0.018685000017285347
-0.015561999753117561
-0.044964998960494995
-0.06937400251626968
-0.08896099776029587
-0.10413099825382233
-0.11543300002813339
-0.12348099797964096
-0.1288899928331375
-0.1322309970855713
-0.13400200009346008
-0.13461799919605255
-0.13440899550914764
-0.1336279958486557
-0.13246099650859833
-0.13104000687599182
-0.12945899367332458
-0.12777699530124664
-0.1259710043668747
-0.12414799630641937
-0.12232699990272522
-0.12050600349903107
-0.11868499964475632
-0.11686500161886215
-0.11504500359296799
-0.11322599649429321
-0.11140599846839905
-0.10958699882030487
-0.1077670007944107
-0.10594800114631653
-0.10412800312042236
-0.1023079976439476
-0.10048700124025345
-0.09866499900817871
-0.09683699905872345
-0.09499599784612656
-0.09312199801206589
-0.09117099642753601
-0.08904899656772614
-0.08657199889421463
-0.08340500295162201
-0.07899100333452225
-0.07248099893331528
-0.06271199882030487
-0.048287998884916306
-0.027816999703645706
-0.000311999989207834
0.0342710018157959
0.07454200088977814
0.11741100251674652
0.15828700363636017
0.19179899990558624
0.21293799579143524
0.21829600632190704
0.20698300004005432
0.1808830052614212
0.14416499435901642
0.10221300274133682
0.06035500019788742
0.02280599996447563
-0.008043999783694744
-0.032437000423669815
-0.05542299896478653
-0.08936300128698349
-0.14652599394321442
-0.21240800619125366
-0.2254820019006729
-0.10039900243282318
0.2192859947681427
0.6801689863204956
1.0444780588150024
1.032351016998291
0.637628972530365
0.14185599982738495
-0.20337499678134918
-0.3258729875087738
-0.2797029912471771
-0.173662006855011
-0.09183800220489502
-0.05157500132918358
-0.033911000937223434
-0.02192400023341179
-0.008794999681413174
0.007449999917298555
0.027542000636458397
0.051913000643253326
0.08077599853277206
0.11405099928379059
0.15128600597381592
0.19160600006580353
0.23369500041007996
0.27584099769592285
0.3160240054130554
0.35207098722457886
0.38184401392936707
0.4034450054168701
0.4154190123081207
0.41691601276397705
0.4077860116958618
0.38860398530960083
0.3606080114841461
0.3255710005760193
0.2856079936027527
0.24297499656677246
0.1998559981584549
0.15818800032138824
0.11953700333833694
0.0850209966301918
0.0553009994328022
0.030618000775575638
0.010859999805688858
-0.004346999805420637
-0.015542999841272831
-0.023351000621914864
-0.02840300090610981
-0.03129500150680542
-0.032547999173402786
-0.032600998878479004
-0.031801000237464905
-0.030415000393986702
-0.02864000014960766
-0.026616999879479408
-0.024442000314593315
-0.022179000079631805
-0.01980699971318245
-0.017433999106287956
-0.015080000273883343
-0.012744000181555748
-0.010425999760627747
-0.008125999942421913
-0.00584500003606081
-0.0035830000415444374
-0.0013389999512583017
0.0008859999943524599
0.003092000028118491
0.005278999917209148
0.007447000127285719
0.009596000425517559
0.011726000346243382
0.013838999904692173
0.01593800075352192
0.018032999709248543
0.020145999267697334
0.022331999614834785
0.02470099925994873
0.027470000088214874
0.031029000878334045
0.036017999053001404
0.04339100047945976
0.05441899970173836
0.07056199759244919
0.09317699819803238
0.12303599715232849
0.1597609966993332
0.20135599374771118
0.24407300353050232
0.2828100025653839
0.3120500147342682
0.3271479904651642
0.32555198669433594
0.3075200021266937
0.2760680019855499
0.23615999519824982
0.19344200193881989
0.15296299755573273
0.11823499947786331
0.09055899828672409
0.06763599812984467
0.04054199904203415
-0.005530000198632479
-0.072564996778965
-0.11945900321006775
-0.0639989972114563
0.17194899916648865
0.5931199789047241
1.0324300527572632
1.1844300031661987
0.9037590026855469
0.4060499966144562
0.00020500000391621143
-0.18133099377155304
-0.1672849953174591
-0.06590099632740021
0.02231599949300289
0.0669500008225441
0.08531399816274643
0.09653100371360779
0.10862000286579132
0.12385699898004532
0.14303700625896454
0.16662000119686127
0.19482499361038208
0.2275409996509552
0.2642489969730377
0.30396100878715515
0.3452099859714508
0.38610899448394775
0.42446398735046387
0.457956999540329
0.4843670129776001
0.501803994178772
0.5089219808578491
0.5050839781761169
0.49043700098991394
0.46590501070022583
0.4330820143222809
0.39405199885368347
0.35116299986839294
0.3067919909954071
0.2631250023841858
0.22198699414730072
0.1847420036792755
0.15224899351596832
0.12489300221204758
0.10264600068330765
0.08517099916934967
0.07192700356245041
0.06226300075650215
0.05550599843263626
0.051020000129938126
0.04824399948120117
0.04670900106430054
0.04604500159621239
0.04597000032663345
0.04627599939703941
0.04681900143623352
0.04749999940395355
0.04825500026345253
0.04910099878907204
0.049936000257730484
0.05074400082230568
0.05152599886059761
0.052282001823186874
0.053011998534202576
0.05371600016951561
0.054395001381635666
0.05504800006747246
0.05567599833011627
0.05627899989485741
0.05685799941420555
0.05741199851036072
0.05794300138950348
0.05844999849796295
0.05893800035119057
0.05941399931907654
0.05989599972963333
0.06043099984526634
0.06111599877476692
0.062150999903678894
0.06390800327062607
0.06701499968767166
0.07243700325489044
0.0814879983663559
0.09571299701929092
0.11656499654054642
0.1448809951543808
0.18024300038814545
0.2204580008983612
0.2614299952983856
0.297650009393692
0.32331299781799316
0.3337720036506653
0.32685399055480957
0.3035140037536621
0.26757198572158813
0.22463400661945343
0.1806190013885498
0.14041100442409515
0.10694699734449387
0.08032800257205963
0.055459000170230865
0.019101999700069427
-0.04147399961948395
-0.1071460023522377
-0.10636699944734573
0.052476998418569565
0.4148840010166168
0.876986026763916
1.1397199630737305
0.9710549712181091
0.4997679889202118
1.0664420127868652
0.8351579904556274
0.34443798661231995
-0.09794899821281433
-0.3298889994621277
-0.35362398624420166
-0.26173898577690125
-0.16119599342346191
-0.10181199759244919
-0.07569599896669388
-0.061889998614788055
-0.04906599968671799
-0.033601000905036926
-0.014410000294446945
0.009022999554872513
0.03697200119495392
0.0694350004196167
0.10604699701070786
0.1460230052471161
0.18813000619411469
0.23071600496768951
0.27179399132728577
0.30917999148368835
0.3406830132007599
0.36430999636650085
0.37847700715065
0.3821829855442047
0.3751240074634552
0.3577350080013275
0.3311440050601959
0.29704999923706055
0.257546991109848
0.21490700542926788
0.17137299478054047
0.12896700203418732
0.08935300260782242
0.053748998790979385
0.022910000756382942
-0.0028490000404417515
-0.0235849991440773
-0.039636000990867615
-0.05152599886059761
-0.05987900123000145
-0.06533700227737427
-0.06851200014352798
-0.06994699686765671
-0.07009900361299515
-0.0693340003490448
-0.06793399900197983
-0.06611000001430511
-0.06401199847459793
-0.06174200028181076
-0.059369999915361404
-0.05687199905514717
-0.05436599999666214
-0.05187299847602844
-0.04939199984073639
-0.04692399874329567
-0.04446899890899658
-0.04202700033783913
-0.039597999304533005
-0.037181999534368515
-0.03477900102734566
-0.03238900005817413
-0.03001300059258938
-0.027651000767946243
-0.02530200034379959
-0.022964999079704285
-0.020639000460505486
-0.018317999318242073
-0.015985999256372452
-0.01360700000077486
-0.011102999560534954
-0.008314000442624092
-0.004939999897032976
-0.00046800001291558146
0.005909999832510948
0.015332000330090523
0.029211999848484993
0.04902400076389313
0.07590100169181824
0.11008299887180328
0.1503639966249466
0.19376499950885773
0.23566900193691254
0.2705329954624176
0.2930769920349121
0.2996099889278412
0.28905001282691956
0.26324498653411865
0.22647300362586975
0.18431200087070465
0.14229099452495575
0.10474500060081482
0.07404299825429916
0.049580998718738556
0.025195999071002007
-0.012868000194430351
-0.07485400140285492
-0.13706600666046143
-0.1273230016231537
0.041496001183986664
0.4103949964046478
0.8792200088500977
1.1630779504776
1.0135740041732788
0.543008029460907
0.08344300091266632
-0.1661120057106018
-0.19664199650287628
-0.10530900210142136
-0.006732000038027763
0.048622000962495804
0.07179799675941467
0.08452299982309341
0.09727399796247482
0.11311300098896027
0.13298599421977997
0.15737199783325195
0.1864819973707199
0.2201790064573288
0.2578909993171692
0.298554003238678
0.34060800075531006
0.3820599913597107
0.42061901092529297
0.45389100909233093
0.47961899638175964
0.49592599272727966
0.5015400052070618
0.495945006608963
0.47945499420166016
0.45317500829696655
0.41888099908828735
0.3788059949874878
0.33540400862693787
0.2910969853401184
0.24805599451065063
0.20803900063037872
0.17230500280857086
0.1415870040655136
0.1161390021443367
0.09581699967384338
0.08019000291824341
0.06864800304174423
0.06050499901175499
0.055073000490665436
0.05172299966216087
0.04991300031542778
0.04919999837875366
0.04924200102686882
0.049782998859882355
0.050641000270843506
0.05168899893760681
0.05284300073981285
0.054127998650074005
0.05540800094604492
0.05666099861264229
0.0578869991004467
0.05908599868416786
0.06025699898600578
0.06140200048685074
0.06252100318670273
0.06361199915409088
0.06467700004577637
0.06571599841117859
0.06672800332307816
0.06771399825811386
0.06867499649524689
0.06961099803447723
0.07052700221538544
0.07143200188875198
0.07235100120306015
0.07334300130605698
0.07453499734401703
0.0761760026216507
0.07872399687767029
0.08293599635362625
0.08993399888277054
0.1011819988489151
0.11828900128602982
0.1425890028476715
0.17452199757099152
0.21297100186347961
0.25484800338745117
0.29520800709724426
0.32806000113487244
0.3477590084075928
0.3505449891090393
0.3356640040874481
0.305620014667511
0.26544201374053955
0.22126999497413635
0.1788029968738556
0.14209699630737305
0.11268799751996994
0.0878560021519661
0.0570640005171299
0.0044929999858140945
-0.0653579980134964
-0.09540099650621414
0.008565000258386135
0.31652599573135376
0.7781170010566711
1.129770040512085
1.0715680122375488
0.6379389762878418
0.15254999697208405
-0.1436769962310791
-0.21117199957370758
-0.13405099511146545
-0.031957000494003296
0.029962999746203423
0.055622000247240067
0.06777399778366089
0.07891499996185303
0.09288600087165833
0.11080200225114822
0.1331920027732849
0.1603119969367981
0.19208300113677979
0.22799800336360931
0.26705700159072876
0.3077529966831207
0.34813299775123596
0.38591599464416504
0.4186919927597046
0.4441550076007843
0.46035799384117126
0.465938001871109
0.46028798818588257
0.44363299012184143
0.4170120060443878
0.3821510076522827
0.34126999974250793
0.2968299984931946
0.25128400325775146
0.20684899389743805
0.1653359979391098
0.12804999947547913
0.09577000141143799
0.0687830001115799
0.04696900025010109
0.029905999079346657
0.016989000141620636
0.007528999820351601
0.000830999983008951
-0.003742000088095665
-0.006738999858498573
-0.008608999662101269
-0.009700999595224857
-0.010273999534547329
-0.010514999739825726
-0.010551000013947487
-0.010467000305652618
-0.010238000191748142
-0.010001000016927719
-0.009778999723494053
-0.009571000002324581
-0.009375999681651592
-0.00919399969279766
-0.009026000276207924
-0.008868999779224396
-0.008724999614059925
-0.008592999540269375
-0.008472000248730183
-0.0083619998767972
-0.008263000287115574
-0.008173000067472458
-0.008090999908745289
-0.008012999780476093
-0.007929000072181225
-0.007811000104993582
-0.0075980001129209995
-0.007158000022172928
-0.006225999910384417
-0.00432500010356307
-0.0006680000224150717
0.005903000012040138
0.01688399910926819
0.033893998712301254
0.05822699889540672
0.09021200239658356
0.12855400145053864
0.16994699835777283
0.20925499498844147
0.2404080033302307
0.2578499913215637
0.25808700919151306
0.24074199795722961
0.2086939960718155
0.16723200678825378
0.12256599962711334
0.08028099685907364
0.04417499899864197
0.015352999791502953
-0.00981099996715784
-0.04324299842119217
-0.100102998316288
-0.16921399533748627
-0.18453900516033173
-0.050328999757766724
0.2919889986515045
0.7587419748306274
1.0543899536132812
0.9177610278129578
0.45421698689460754
-0.017412999644875526
-0.2912310063838959
-0.3448469936847687
-0.26375699043273926
-0.1615770012140274
-0.09896399825811386
-0.07219599932432175
-0.059397999197244644
-0.048037998378276825
-0.034077998250722885
-0.01634399965405464
0.005704999901354313
0.032356999814510345
0.06360100209712982
0.09904699772596359
0.13785900175571442
0.17872899770736694
0.21991300582885742
0.25932401418685913
0.2946909964084625
0.3237600028514862
0.3445200026035309
0.35542601346969604
0.3555710017681122
0.34480100870132446
0.32373398542404175
0.2936969995498657
0.25657498836517334
0.21460799872875214
0.17016200721263885
0.1255050003528595
0.0826210007071495
0.04307600110769272
0.00795700028538704
-0.022135000675916672
-0.04703899845480919
-0.06694500148296356
-0.08229900151491165
-0.09370099753141403
-0.10181199759244919
-0.10728699713945389
-0.11072500050067902
-0.11264199763536453
-0.1134599968791008
-0.11350700259208679
-0.11303000152111053
-0.11220800131559372
-0.11116500198841095
-0.10998199880123138
-0.10863099992275238
-0.1072549968957901
-0.10587800294160843
-0.10450000315904617
-0.10312099754810333
-0.10174000263214111
-0.10035800188779831
-0.09897399693727493
-0.09758699685335159
-0.09619899839162827
-0.09480900317430496
-0.0934159979224205
-0.09202100336551666
-0.09062299877405167
-0.08922100067138672
-0.08781299740076065
-0.08639299869537354
-0.08494599908590317
-0.08343499898910522
-0.08177900314331055
-0.07981300354003906
-0.07722099870443344
-0.07346100360155106
-0.06767900288105011
-0.05867199972271919
-0.04495900124311447
-0.025028999894857407
0.0022100000642240047
0.03682300075888634
0.07728199660778046
0.1201770007610321
0.16046999394893646
0.19236800074577332
0.21066999435424805
0.21214799582958221
0.19648399949073792
0.1663849949836731
0.1268180012702942
0.083685003221035
0.0424019992351532
0.006819000001996756
-0.02157600037753582
-0.04522800073027611
-0.07381100207567215
-0.12272399663925171
-0.19117000699043274
-0.23051699995994568
-0.152196004986763
0.1195869967341423
0.5664849877357483
0.9749770164489746
1.031227946281433
0.6707040071487427
0.1674879938364029
-0.19582200050354004
-0.32889100909233093
-0.2845900058746338
-0.1779250055551529
-0.0973069965839386
-0.05890500172972679
-0.04196900129318237
-0.029589999467134476
-0.015437999740242958
0.002245000097900629
0.02413400076329708
0.050599001348018646
0.0817359983921051
0.1172730028629303
0.1564989984035492
0.1982239931821823
0.24079200625419617
0.2821660041809082
0.32006698846817017
0.35217899084091187
0.3763760030269623
0.39095500111579895
0.3948279917240143
0.38766101002693176
0.3699150085449219
0.3427940011024475
0.30811500549316406
0.26809999346733093
0.22514699399471283
0.18159200251102448
0.13950900733470917
0.10056500136852264
0.06594099849462509
0.03631399944424629
0.011908000335097313
-0.007431999780237675
-0.02213199995458126
-0.03278699889779091
-0.04006899893283844
-0.04464399814605713
-0.04712900146842003
-0.04805399850010872
-0.047857001423835754
-0.04687599837779999
-0.04536699876189232
-0.043515998870134354
-0.04144899919629097
-0.03925300016999245
-0.03689799830317497
-0.03453100100159645
-0.032175999134778976
-0.029834000393748283
-0.027504000812768936
-0.025187000632286072
-0.02288299985229969
-0.020591000095009804
-0.018312999978661537
-0.016047999262809753
-0.013795999810099602
-0.011556999757885933
-0.009331000037491322
-0.00711899995803833
-0.004920000210404396
-0.0027310000732541084
-0.0005450000171549618
0.0016540000215172768
0.0039059999398887157
0.006304000038653612
0.00903099961578846
0.01243400014936924
0.01710899919271469
0.023979000747203827
0.03432299941778183
0.049674998968839645
0.0715320035815239
0.10085099935531616
0.1374170035123825
0.17928600311279297
0.22259600460529327
0.26195698976516724
0.2914949953556061
0.3062869906425476
0.3037259876728058
0.2843030095100403
0.251473993062973
0.21069000661373138
0.16794200241565704
0.12836599349975586
0.09524799883365631
0.06913600116968155
0.045635998249053955
0.012210999615490437
-0.04502499848604202
-0.11150500178337097
-0.11998099833726883
0.022154999896883965
0.369268000125885
0.8380650281906128
1.1426199674606323
1.0170199871063232
0.5531070232391357
0.09044100344181061
-0.16121000051498413
-0.19085100293159485
-0.09854000061750412
-0.0012100000167265534
0.051993999630212784
0.07394000142812729
0.08641500025987625
0.09935799986124039
0.11557599902153015
0.1359580010175705
0.1609649956226349
0.19077099859714508
0.2251719981431961
0.26350000500679016
0.3045650124549866
0.346668004989624
0.3876810073852539
0.4252009987831116
0.4567759931087494
0.4801569879055023
0.49355900287628174
0.49587899446487427
0.48683398962020874
0.4670090079307556
0.43778398633003235
0.4011699855327606
0.3595759868621826
0.3155420124530792
0.2714860141277313
0.22948899865150452
0.19115500152111053
0.1575459986925125
0.1291929930448532
0.10615699738264084
0.08813799917697906
0.0745910033583641
0.06483600288629532
0.058159999549388885
0.053881000727415085
0.05139699950814247
0.050209999084472656
0.049922000616788864
0.05023699998855591
0.050937000662088394
0.05187299847602844
0.052942998707294464
0.05409900099039078
0.05533500015735626
0.056543998420238495
0.057725999504327774
0.0588809996843338
0.06000899896025658
0.0611100010573864
0.06218399852514267
0.06323099881410599
0.06425199657678604
0.06524600088596344
0.06621400266885757
0.06715600192546844
0.06807199865579605
0.06896399706602097
0.06983400136232376
0.0706930011510849
0.0715629979968071
0.07250099629163742
0.0736289992928505
0.07519599795341492
0.07766000181436539
0.0817900002002716
0.08873400092124939
0.09999500215053558
0.11723200231790543
0.14180000126361847
0.17409799993038177
0.21287600696086884
0.25481200218200684
0.29468899965286255
0.32631000876426697
0.34401100873947144
0.34426501393318176
0.32677900791168213
0.2946009933948517
0.25321099162101746
0.20895199477672577
0.1674319952726364
0.13234399259090424
0.10449399799108505
0.07946400344371796
0.044091999530792236
-0.015845000743865967
-0.08224999904632568
-0.08032900094985962
0.08675099909305573
0.46332600712776184
0.9252560138702393
1.146926999092102
0.9207419753074646
0.4276899993419647
-0.005129000172019005
-0.21558700501918793
-0.2184710055589676
-0.1201540008187294
-0.028435999527573586
0.019057000055909157
0.03825100138783455
0.04944700002670288
0.06144599989056587
0.07673399895429611
0.09613599628210068
0.12009000033140182
0.14876000583171844
0.18195199966430664
0.2190299928188324
0.2588599920272827
0.2998239994049072
0.33988699316978455
0.3767400085926056
0.4080039858818054
0.4314660131931305
0.44532498717308044
0.4484040141105652
0.44029301404953003
0.421407014131546
0.3929400146007538
0.35672399401664734
0.31502699851989746
0.2703000009059906
0.2249390035867691
0.18106600642204285
0.14038200676441193
0.10408300161361694
0.07284499704837799
0.04687599837779999
0.025999000295996666
0.00976100005209446
-0.0024560000747442245
-0.011340999975800514
-0.01757200062274933
-0.021770000457763672
-0.024466000497341156
-0.026089999824762344
-0.026976000517606735
-0.027372000738978386
-0.027452999725937843
-0.027341000735759735
-0.02711700089275837
-0.026758000254631042
-0.026391999796032906
-0.026040999218821526
-0.02570500038564205
-0.02538299933075905
-0.025073999539017677
-0.024778999388217926
-0.024497000500559807
-0.02422799915075302
-0.02397100068628788
-0.023724999278783798
-0.02349100075662136
-0.023267999291419983
-0.023056000471115112
-0.022850999608635902
-0.022652000188827515
-0.022445999085903168
-0.022206999361515045
-0.021877000108361244
-0.021323999390006065
-0.02029299922287464
-0.01831899955868721
-0.014638000167906284
-0.008119000121951103
0.0027020000852644444
0.019430000334978104
0.04337799921631813
0.0749559998512268
0.11301500350236893
0.1544400006532669
0.1942790001630783
0.22655899822711945
0.24567100405693054
0.24789799749851227
0.2325199991464615
0.2020529955625534
0.1615159958600998
0.11702600121498108
0.07425899803638458
0.037257999181747437
0.007561999838799238
-0.01750599965453148
-0.04837900027632713
-0.10085199773311615
-0.17089299857616425
-0.2023559957742691
-0.10154800117015839
0.20233799517154694
0.6626369953155518
1.0207760334014893
0.9868549704551697
0.5759919881820679
0.07757200300693512
-0.2621400058269501
-0.37766799330711365
-0.32730400562286377
-0.22123000025749207
-0.14156299829483032
-0.1032710000872612
-0.08675000071525574
-0.07537399977445602
-0.0625780001282692
-0.04647500067949295
-0.02636599913239479
-0.0018629999831318855
0.027180999517440796
0.060593001544475555
0.09781300276517868
0.13784299790859222
0.17924900352954865
0.22021399438381195
0.25864899158477783
0.2923550009727478
0.31922200322151184
0.3374350070953369
0.34567299485206604
0.3432539999485016
0.3302150070667267
0.30731499195098877
0.275954008102417
0.23802299797534943
0.19571100175380707
0.15128900110721588
0.10691100358963013
0.06444200128316879
0.02535099908709526
-0.009351000189781189
-0.03911000117659569
-0.06378000229597092
-0.08354700356721878
-0.0988370031118393
-0.11022300273180008
-0.11834000051021576
-0.123819999396801
-0.1272439956665039
-0.12912000715732574
-0.12986500561237335
-0.1298069953918457
-0.12919799983501434
-0.12822000682353973
-0.12700200080871582
-0.12563300132751465
-0.12415499985218048
-0.12256500124931335
-0.12097500264644623
-0.11938600242137909
-0.11779700219631195
-0.11620700359344482
-0.11461800336837769
-0.11302799731492996
-0.11143799871206284
-0.10984700173139572
-0.10825499892234802
-0.10666300356388092
-0.10506899654865265
-0.10347399860620499
-0.10187800228595734
-0.10027799755334854
-0.09867200255393982
-0.09705100208520889
-0.0953959971666336
-0.09365800023078918
-0.0917389988899231
-0.08944199979305267
-0.08641000092029572
-0.0820470005273819
-0.07545000314712524
-0.0653889998793602
-0.05040900036692619
-0.029097000136971474
-0.0005310000269673765
0.03514999896287918
0.0762460008263588
0.11928000301122665
0.1593009978532791
0.19073699414730072
0.20865899324417114
0.2100449949502945
0.1946299970149994
0.1649940013885498
0.1258700042963028
0.08292099833488464
0.04142199829220772
0.005237000063061714
-0.02390900067985058
-0.04769999906420708
-0.07419399917125702
-0.11811599880456924
-0.1844799965620041
-0.23758099973201752
-0.1975180059671402
0.017743000760674477
0.42603600025177
0.881974995136261
1.081907033920288
0.8495150208473206
0.3584420084953308
-0.0827770009636879
-0.3127099871635437
-0.33464598655700684
-0.24204899370670319
-0.1418820023536682
-0.08314000070095062
-0.05736599862575531
-0.04361199960112572
-0.03071499988436699
-0.015134000219404697
0.00419399980455637
0.027780000120401382
0.05589500069618225
0.08852499723434448
0.12529300153255463
0.16539500653743744
0.20758000016212463
0.25017601251602173
0.29117700457572937
0.3283880054950714
0.35961198806762695
0.3828650116920471
0.39657899737358093
0.39977899193763733
0.39219599962234497
0.37430500984191895
0.34727099537849426
0.312826007604599
0.2730869948863983
0.23033800721168518
0.18682199716567993
0.14455099403858185
0.10516499727964401
0.06985999643802643
0.03936000168323517
0.013953999616205692
-0.006438999902456999
-0.02217400074005127
-0.03378799930214882
-0.04191000014543533
-0.047185998409986496
-0.05022300034761429
-0.051562000066041946
-0.0516510009765625
-0.05085200071334839
-0.04944099858403206
-0.04762300103902817
-0.04554300010204315
-0.04330199956893921
-0.04096600040793419
-0.038513001054525375
-0.036056999117136
-0.033615000545978546
-0.0311879999935627
-0.028775999322533607
-0.026379000395536423
-0.023997999727725983
-0.02163200080394745
-0.01928200013935566
-0.016947999596595764
-0.0146289998665452
-0.01232600025832653
-0.01003899984061718
-0.0077669997699558735
-0.005510999821126461
-0.003266999963670969
-0.001028000027872622
0.0012209999840706587
0.0035230000503361225
0.005963000003248453
0.008716999553143978
0.012109999544918537
0.01669500023126602
0.023327000439167023
0.03319299966096878
0.04774000123143196
0.06842599809169769
0.09629400074481964
0.13140100240707397
0.17228199541568756
0.2156739979982376
0.2567389905452728
0.28986799716949463
0.3099279999732971
0.3135780096054077
0.3002069890499115
0.27212101221084595
0.23391899466514587
0.19128499925136566
0.1496330052614212
0.11302699893712997
0.08342800289392471
0.05950000137090683
0.03371400013566017
-0.008566999807953835
-0.07399400323629379
-0.12968899309635162
-0.09673900157213211
0.1089399978518486
0.5103870034217834
0.9694259762763977
1.1821060180664062
0.9580079913139343
0.4663900136947632
0.0328029990196228
-0.17976300418376923
-0.18433399498462677
-0.08578900247812271
0.007848000153899193
0.05744300037622452
0.07814399898052216
0.09041299670934677
0.10332199931144714
0.11945900321006775
0.1396699994802475
0.16440199315547943
0.19383199512958527
0.22778700292110443
0.26565998792648315
0.30635499954223633
0.3482939898967743
0.389477014541626
0.42762601375579834
0.46037399768829346
0.4855029881000519
0.5011829733848572
0.5061870217323303
0.5000380277633667
0.48307499289512634
0.4564160108566284
0.4218280017375946
0.3815290033817291
0.3379470109939575
0.29347699880599976
0.2502650022506714
0.21005399525165558
0.17409099638462067
0.14310899376869202
0.11736799776554108
0.09673500061035156
0.08078800141811371
0.06893099844455719
0.06048300117254257
0.0547650009393692
0.051148999482393265
0.04909300059080124
0.04815499857068062
0.04798800125718117
0.048333000391721725
0.04900600016117096
0.04987499862909317
0.050857000052928925
0.05197799950838089
0.05309399962425232
0.0541829988360405
0.055243998765945435
0.05627800151705742
0.05728499963879585
0.05826500058174133
0.05921800062060356
0.060145001858472824
0.061044998466968536
0.061918001621961594
0.06276500225067139
0.0635870024561882
0.06438200175762177
0.06515400111675262
0.06590399891138077
0.06664100289344788
0.06738600134849548
0.06818799674510956
0.0691550001502037
0.07050299644470215
0.07263500243425369
0.07622499763965607
0.08230199664831161
0.09224499762058258
0.10764200240373611
0.12992900609970093
0.15981900691986084
0.19664700329303741
0.23787200450897217
0.27903199195861816
0.3143619894981384
0.3380270004272461
0.3456510007381439
0.3355790078639984
0.3093920052051544
0.2714579999446869
0.2276889979839325
0.18400299549102783
0.14501699805259705
0.11314599961042404
0.08737599849700928
0.06017100065946579
0.016162000596523285
-0.051350999623537064
-0.10530199855566025
-0.05979600176215172
0.17140500247478485
0.5957130193710327
1.0297060012817383
1.1455140113830566
0.8263599872589111
0.32086798548698425
-0.07107000052928925
-0.2346159964799881
-0.20882999897003174
-0.10537400096654892
-0.020538000389933586
0.020893000066280365
0.03783699870109558
0.04868699982762337
0.06083900108933449
0.07636699825525284
0.09601300209760666
0.12018000334501266
0.1490049958229065
0.18227200210094452
0.2193329930305481
0.2590630054473877
0.2998709976673126
0.33976298570632935
0.37648800015449524
0.40772199630737305
1.0664420127868652
0.8351579904556274
0.34443798661231995
-0.09794899821281433
-0.3298889994621277
-0.35362398624420166
-0.26173898577690125
-0.16119599342346191
-0.10181199759244919
-0.07569599896669388
-0.061889998614788055
-0.04906599968671799
-0.033601000905036926
-0.014410000294446945
0.009022999554872513
0.03697200119495392
0.0694350004196167
0.10604699701070786
0.1460230052471161
0.18813000619411469
0.23071600496768951
0.27179399132728577
0.30917999148368835
0.3406830132007599
0.36430999636650085
0.37847700715065
0.3821829855442047
0.3751240074634552
0.3577350080013275
0.3311440050601959
0.29704999923706055
0.257546991109848
0.21490700542926788
0.17137299478054047
0.12896700203418732
0.08935300260782242
0.053748998790979385
0.022910000756382942
-0.0028490000404417515
-0.0235849991440773
-0.039636000990867615
-0.05152599886059761
-0.05987900123000145
-0.06533700227737427
-0.06851200014352798
-0.06994699686765671
-0.07009900361299515
-0.0693340003490448
-0.06793399900197983
-0.06611000001430511
-0.06401199847459793
-0.06174200028181076
-0.059369999915361404
-0.05687199905514717
-0.05436599999666214
-0.05187299847602844
-0.04939199984073639
-0.04692399874329567
-0.04446899890899658
-0.04202700033783913
-0.039597999304533005
-0.037181999534368515
-0.03477900102734566
-0.03238900005817413
-0.03001300059258938
-0.027651000767946243
-0.02530200034379959
-0.022964999079704285
-0.020639000460505486
-0.018317999318242073
-0.015985999256372452
-0.01360700000077486
-0.011102999560534954
-0.008314000442624092
-0.004939999897032976
-0.00046800001291558146
0.005909999832510948
0.015332000330090523
0.029211999848484993
0.04902400076389313
0.07590100169181824
0.11008299887180328
0.1503639966249466
0.19376499950885773
0.23566900193691254
0.2705329954624176
0.2930769920349121
0.2996099889278412
0.28905001282691956
0.26324498653411865
0.22647300362586975
0.18431200087070465
0.14229099452495575
0.10474500060081482
0.07404299825429916
0.049580998718738556
0.025195999071002007
-0.012868000194430351
-0.07485400140285492
-0.13706600666046143
-0.1273230016231537
0.041496001183986664
0.4103949964046478
0.8792200088500977
1.1630779504776
1.0135740041732788
0.543008029460907
0.08344300091266632
-0.1661120057106018
-0.19664199650287628
-0.10530900210142136
-0.006732000038027763
0.048622000962495804
0.07179799675941467
0.08452299982309341
0.09727399796247482
0.11311300098896027
0.13298599421977997
0.15737199783325195
0.1864819973707199
0.2201790064573288
0.2578909993171692
0.298554003238678
0.34060800075531006
0.3820599913597107
0.42061901092529297
0.45389100909233093
0.47961899638175964
0.49592599272727966
0.5015400052070618
0.495945006608963
0.47945499420166016
0.45317500829696655
0.41888099908828735
0.3788059949874878
0.33540400862693787
0.2910969853401184
0.24805599451065063
0.20803900063037872
0.17230500280857086
0.1415870040655136
0.1161390021443367
0.09581699967384338
0.08019000291824341
0.06864800304174423
0.06050499901175499
0.055073000490665436
0.05172299966216087
0.04991300031542778
0.04919999837875366
0.04924200102686882
0.049782998859882355
0.050641000270843506
0.05168899893760681
0.05284300073981285
0.054127998650074005
0.05540800094604492
0.05666099861264229
0.0578869991004467
0.05908599868416786
0.06025699898600578
0.06140200048685074
0.06252100318670273
0.06361199915409088
0.06467700004577637
0.06571599841117859
0.06672800332307816
0.06771399825811386
0.06867499649524689
0.06961099803447723
0.07052700221538544
0.07143200188875198
0.07235100120306015
0.07334300130605698
0.07453499734401703
0.0761760026216507
0.07872399687767029
0.08293599635362625
0.08993399888277054
0.1011819988489151
0.11828900128602982
0.1425890028476715
0.17452199757099152
0.21297100186347961
0.25484800338745117
0.29520800709724426
0.32806000113487244
0.3477590084075928
0.3505449891090393
0.3356640040874481
0.305620014667511
0.26544201374053955
0.22126999497413635
0.1788029968738556
0.14209699630737305
0.11268799751996994
0.0878560021519661
0.0570640005171299
0.0044929999858140945
-0.0653579980134964
-0.09540099650621414
0.008565000258386135
0.31652599573135376
0.7781170010566711
1.129770040512085
1.0715680122375488
0.6379389762878418
0.15254999697208405
-0.1436769962310791
-0.21117199957370758
-0.13405099511146545
-0.031957000494003296
0.029962999746203423
0.055622000247240067
0.06777399778366089
0.07891499996185303
0.09288600087165833
0.11080200225114822
0.1331920027732849
0.1603119969367981
0.19208300113677979
0.22799800336360931
0.26705700159072876
0.3077529966831207
0.34813299775123596
0.38591599464416504
0.4186919927597046
0.4441550076007843
0.46035799384117126
0.465938001871109
0.46028798818588257
0.44363299012184143
0.4170120060443878
0.3821510076522827
0.34126999974250793
0.2968299984931946
0.25128400325775146
0.20684899389743805
0.1653359979391098
0.12804999947547913
0.09577000141143799
0.0687830001115799
0.04696900025010109
0.029905999079346657
0.016989000141620636
0.007528999820351601
0.000830999983008951
-0.003742000088095665
-0.006738999858498573
-0.008608999662101269
-0.009700999595224857
-0.010273999534547329
-0.010514999739825726
-0.010551000013947487
-0.010467000305652618
-0.010238000191748142
-0.010001000016927719
-0.009778999723494053
-0.009571000002324581
-0.009375999681651592
-0.00919399969279766
-0.009026000276207924
-0.008868999779224396
-0.008724999614059925
-0.008592999540269375
-0.008472000248730183
-0.0083619998767972
-0.008263000287115574
-0.008173000067472458
-0.008090999908745289
-0.008012999780476093
-0.007929000072181225
-0.007811000104993582
-0.0075980001129209995
-0.007158000022172928
-0.006225999910384417
-0.00432500010356307
-0.0006680000224150717
0.005903000012040138
0.01688399910926819
0.033893998712301254
0.05822699889540672
0.09021200239658356
0.12855400145053864
0.16994699835777283
0.20925499498844147
0.2404080033302307
0.2578499913215637
0.25808700919151306
0.24074199795722961
0.2086939960718155
0.16723200678825378
0.12256599962711334
0.08028099685907364
0.04417499899864197
0.015352999791502953
-0.00981099996715784
-0.04324299842119217
-0.100102998316288
-0.16921399533748627
-0.18453900516033173
-0.050328999757766724
0.2919889986515045
0.7587419748306274
1.0543899536132812
0.9177610278129578
0.45421698689460754
-0.017412999644875526
-0.2912310063838959
-0.3448469936847687
-0.26375699043273926
-0.1615770012140274
-0.09896399825811386
-0.07219599932432175
-0.059397999197244644
-0.048037998378276825
-0.034077998250722885
-0.01634399965405464
0.005704999901354313
0.032356999814510345
0.06360100209712982
0.09904699772596359
0.13785900175571442
0.17872899770736694
0.21991300582885742
0.25932401418685913
0.2946909964084625
0.3237600028514862
0.3445200026035309
0.35542601346969604
0.3555710017681122
0.34480100870132446
0.32373398542404175
0.2936969995498657
0.25657498836517334
0.21460799872875214
0.17016200721263885
0.1255050003528595
0.0826210007071495
0.04307600110769272
0.00795700028538704
-0.022135000675916672
-0.04703899845480919
-0.06694500148296356
-0.08229900151491165
-0.09370099753141403
-0.10181199759244919
-0.10728699713945389
-0.11072500050067902
-0.11264199763536453
-0.1134599968791008
-0.11350700259208679
-0.11303000152111053
-0.11220800131559372
-0.11116500198841095
-0.10998199880123138
-0.10863099992275238
-0.1072549968957901
-0.10587800294160843
-0.10450000315904617
-0.10312099754810333
-0.10174000263214111
-0.10035800188779831
-0.09897399693727493
-0.09758699685335159
-0.09619899839162827
-0.09480900317430496
-0.0934159979224205
-0.09202100336551666
-0.09062299877405167
-0.08922100067138672
-0.08781299740076065
-0.08639299869537354
-0.08494599908590317
-0.08343499898910522
-0.08177900314331055
-0.07981300354003906
-0.07722099870443344
-0.07346100360155106
-0.06767900288105011
-0.05867199972271919
-0.04495900124311447
-0.025028999894857407
0.0022100000642240047
0.03682300075888634
0.07728199660778046
0.1201770007610321
0.16046999394893646
0.19236800074577332
0.21066999435424805
0.21214799582958221
0.19648399949073792
0.1663849949836731
0.1268180012702942
0.083685003221035
0.0424019992351532
0.006819000001996756
-0.02157600037753582
-0.04522800073027611
-0.07381100207567215
-0.12272399663925171
-0.19117000699043274
-0.23051699995994568
-0.152196004986763
0.1195869967341423
0.5664849877357483
0.9749770164489746
1.031227946281433
0.6707040071487427
0.1674879938364029
-0.19582200050354004
-0.32889100909233093
-0.2845900058746338
-0.1779250055551529
-0.0973069965839386
-0.05890500172972679
-0.04196900129318237
-0.029589999467134476
-0.015437999740242958
0.002245000097900629
0.02413400076329708
0.050599001348018646
0.0817359983921051
0.1172730028629303
0.1564989984035492
0.1982239931821823
0.24079200625419617
0.2821660041809082
0.32006698846817017
0.35217899084091187
0.3763760030269623
0.39095500111579895
0.3948279917240143
0.38766101002693176
0.3699150085449219
0.3427940011024475
0.30811500549316406
0.26809999346733093
0.22514699399471283
0.18159200251102448
0.13950900733470917
0.10056500136852264
0.06594099849462509
0.03631399944424629
0.011908000335097313
-0.007431999780237675
-0.02213199995458126
-0.03278699889779091
-0.04006899893283844
-0.04464399814605713
-0.04712900146842003
-0.04805399850010872
-0.047857001423835754
-0.04687599837779999
-0.04536699876189232
-0.043515998870134354
-0.04144899919629097
-0.03925300016999245
-0.03689799830317497
-0.03453100100159645
-0.032175999134778976
-0.029834000393748283
-0.027504000812768936
-0.025187000632286072
-0.02288299985229969
-0.020591000095009804
-0.018312999978661537
-0.016047999262809753
-0.013795999810099602
-0.011556999757885933
-0.009331000037491322
-0.00711899995803833
-0.004920000210404396
-0.0027310000732541084
-0.0005450000171549618
0.0016540000215172768
0.0039059999398887157
0.006304000038653612
0.00903099961578846
0.01243400014936924
0.01710899919271469
0.023979000747203827
0.03432299941778183
0.049674998968839645
0.0715320035815239
0.10085099935531616
0.1374170035123825
0.17928600311279297
0.22259600460529327
0.26195698976516724
0.2914949953556061
0.3062869906425476
0.3037259876728058
0.2843030095100403
0.251473993062973
0.21069000661373138
0.16794200241565704
0.12836599349975586
0.09524799883365631
0.06913600116968155
0.045635998249053955
0.012210999615490437
-0.04502499848604202
-0.11150500178337097
-0.11998099833726883
0.022154999896883965
0.369268000125885
0.8380650281906128
1.1426199674606323
1.0170199871063232
0.5531070232391357
0.09044100344181061
-0.16121000051498413
-0.19085100293159485
-0.09854000061750412
-0.0012100000167265534
0.051993999630212784
0.07394000142812729
0.08641500025987625
0.09935799986124039
0.11557599902153015
0.1359580010175705
0.1609649956226349
0.19077099859714508
0.2251719981431961
0.26350000500679016
0.3045650124549866
0.346668004989624
0.3876810073852539
0.4252009987831116
0.4567759931087494
0.4801569879055023
0.49355900287628174
0.49587899446487427
0.48683398962020874
0.4670090079307556
0.43778398633003235
0.4011699855327606
0.3595759868621826
0.3155420124530792
0.2714860141277313
0.22948899865150452
0.19115500152111053
0.1575459986925125
0.1291929930448532
0.10615699738264084
0.08813799917697906
0.0745910033583641
0.06483600288629532
0.058159999549388885
0.053881000727415085
0.05139699950814247
0.050209999084472656
0.049922000616788864
0.05023699998855591
0.050937000662088394
0.05187299847602844
0.052942998707294464
0.05409900099039078
0.05533500015735626
0.056543998420238495
0.057725999504327774
0.0588809996843338
0.06000899896025658
0.0611100010573864
0.06218399852514267
0.06323099881410599
0.06425199657678604
0.06524600088596344
0.06621400266885757
0.06715600192546844
0.06807199865579605
0.06896399706602097
0.06983400136232376
0.0706930011510849
0.0715629979968071
0.07250099629163742
0.0736289992928505
0.07519599795341492
0.07766000181436539
0.0817900002002716
0.08873400092124939
0.09999500215053558
0.11723200231790543
0.14180000126361847
0.17409799993038177
0.21287600696086884
0.25481200218200684
0.29468899965286255
0.32631000876426697
0.34401100873947144
0.34426501393318176
0.32677900791168213
0.2946009933948517
0.25321099162101746
0.20895199477672577
0.1674319952726364
0.13234399259090424
0.10449399799108505
0.07946400344371796
0.044091999530792236
-0.015845000743865967
-0.08224999904632568
-0.08032900094985962
0.08675099909305573
0.46332600712776184
0.9252560138702393
1.146926999092102
0.9207419753074646
0.4276899993419647
-0.005129000172019005
-0.21558700501918793
-0.2184710055589676
-0.1201540008187294
-0.028435999527573586
0.019057000055909157
0.03825100138783455
0.04944700002670288
0.06144599989056587
0.07673399895429611
0.09613599628210068
0.12009000033140182
0.14876000583171844
0.18195199966430664
0.2190299928188324
0.2588599920272827
0.2998239994049072
0.33988699316978455
0.3767400085926056
0.4080039858818054
0.4314660131931305
0.44532498717308044
0.4484040141105652
0.44029301404953003
0.421407014131546
0.3929400146007538
0.35672399401664734
0.31502699851989746
0.2703000009059906
0.2249390035867691
0.18106600642204285
0.14038200676441193
0.10408300161361694
0.07284499704837799
0.04687599837779999
0.025999000295996666
0.00976100005209446
-0.0024560000747442245
-0.011340999975800514
-0.01757200062274933
-0.021770000457763672
-0.024466000497341156
-0.026089999824762344
-0.026976000517606735
-0.027372000738978386
-0.027452999725937843
-0.027341000735759735
-0.02711700089275837
-0.026758000254631042
-0.026391999796032906
-0.026040999218821526
-0.02570500038564205
-0.02538299933075905
-0.025073999539017677
-0.024778999388217926
-0.024497000500559807
-0.02422799915075302
-0.02397100068628788
-0.023724999278783798
-0.02349100075662136
-0.023267999291419983
-0.023056000471115112
-0.022850999608635902
-0.022652000188827515
-0.022445999085903168
-0.022206999361515045
-0.021877000108361244
-0.021323999390006065
-0.02029299922287464
-0.01831899955868721
-0.014638000167906284
-0.008119000121951103
0.0027020000852644444
0.019430000334978104
0.04337799921631813
0.0749559998512268
0.11301500350236893
0.1544400006532669
0.1942790001630783
0.22655899822711945
0.24567100405693054
0.24789799749851227
0.2325199991464615
0.2020529955625534
0.1615159958600998
0.11702600121498108
0.07425899803638458
0.037257999181747437
0.007561999838799238
-0.01750599965453148
-0.04837900027632713
-0.10085199773311615
-0.17089299857616425
-0.2023559957742691
-0.10154800117015839
0.20233799517154694
0.6626369953155518
1.0207760334014893
0.9868549704551697
0.5759919881820679
0.07757200300693512
-0.2621400058269501
-0.37766799330711365
-0.32730400562286377
-0.22123000025749207
-0.14156299829483032
-0.1032710000872612
-0.08675000071525574
-0.07537399977445602
-0.0625780001282692
-0.04647500067949295
-0.02636599913239479
-0.0018629999831318855
0.027180999517440796
0.060593001544475555
0.09781300276517868
0.13784299790859222
0.17924900352954865
0.22021399438381195
0.25864899158477783
0.2923550009727478
0.31922200322151184
0.3374350070953369
0.34567299485206604
0.3432539999485016
0.3302150070667267
0.30731499195098877
0.275954008102417
0.23802299797534943
0.19571100175380707
0.15128900110721588
0.10691100358963013
0.06444200128316879
0.02535099908709526
-0.009351000189781189
-0.03911000117659569
-0.06378000229597092
-0.08354700356721878
-0.0988370031118393
-0.11022300273180008
-0.11834000051021576
-0.123819999396801
-0.1272439956665039
-0.12912000715732574
-0.12986500561237335
-0.1298069953918457
-0.12919799983501434
-0.12822000682353973
-0.12700200080871582
-0.12563300132751465
-0.12415499985218048
-0.12256500124931335
-0.12097500264644623
-0.11938600242137909
-0.11779700219631195
-0.11620700359344482
-0.11461800336837769
-0.11302799731492996
-0.11143799871206284
-0.10984700173139572
-0.10825499892234802
-0.10666300356388092
-0.10506899654865265
-0.10347399860620499
-0.10187800228595734
-0.10027799755334854
-0.09867200255393982
-0.09705100208520889
-0.0953959971666336
-0.09365800023078918
-0.0917389988899231
-0.08944199979305267
-0.08641000092029572
-0.0820470005273819
-0.07545000314712524
-0.0653889998793602
-0.05040900036692619
-0.029097000136971474
-0.0005310000269673765
0.03514999896287918
0.0762460008263588
0.11928000301122665
0.1593009978532791
0.19073699414730072
0.20865899324417114
0.2100449949502945
0.1946299970149994
0.1649940013885498
0.1258700042963028
0.08292099833488464
0.04142199829220772
0.005237000063061714
-0.02390900067985058
-0.04769999906420708
-0.07419399917125702
-0.11811599880456924
-0.1844799965620041
-0.23758099973201752
-0.1975180059671402
0.017743000760674477
0.42603600025177
0.881974995136261
1.081907033920288
0.8495150208473206
0.3584420084953308
-0.0827770009636879
-0.3127099871635437
-0.33464598655700684
-0.24204899370670319
-0.1418820023536682
-0.08314000070095062
-0.05736599862575531
-0.04361199960112572
-0.03071499988436699
-0.015134000219404697
0.00419399980455637
0.027780000120401382
0.05589500069618225
0.08852499723434448
0.12529300153255463
0.16539500653743744
0.20758000016212463
0.25017601251602173
0.29117700457572937
0.3283880054950714
0.35961198806762695
0.3828650116920471
0.39657899737358093
0.39977899193763733
0.39219599962234497
0.37430500984191895
0.34727099537849426
0.312826007604599
0.2730869948863983
0.23033800721168518
0.18682199716567993
0.14455099403858185
0.10516499727964401
0.06985999643802643
0.03936000168323517
0.013953999616205692
-0.006438999902456999
-0.02217400074005127
-0.03378799930214882
-0.04191000014543533
-0.047185998409986496
-0.05022300034761429
-0.051562000066041946
-0.0516510009765625
-0.05085200071334839
-0.04944099858403206
-0.04762300103902817
-0.04554300010204315
-0.04330199956893921
-0.04096600040793419
-0.038513001054525375
-0.036056999117136
-0.033615000545978546
-0.0311879999935627
-0.028775999322533607
-0.026379000395536423
-0.023997999727725983
-0.02163200080394745
-0.01928200013935566
-0.016947999596595764
-0.0146289998665452
-0.01232600025832653
-0.01003899984061718
-0.0077669997699558735
-0.005510999821126461
-0.003266999963670969
-0.001028000027872622
0.0012209999840706587
0.0035230000503361225
0.005963000003248453
0.008716999553143978
0.012109999544918537
0.01669500023126602
0.023327000439167023
0.03319299966096878
0.04774000123143196
0.06842599809169769
0.09629400074481964
0.13140100240707397
0.17228199541568756
0.2156739979982376
0.2567389905452728
0.28986799716949463
0.3099279999732971
0.3135780096054077
0.3002069890499115
0.27212101221084595
0.23391899466514587
0.19128499925136566
0.1496330052614212
0.11302699893712997
0.08342800289392471
0.05950000137090683
0.03371400013566017
-0.008566999807953835
-0.07399400323629379
-0.12968899309635162
-0.09673900157213211
0.1089399978518486
0.5103870034217834
0.9694259762763977
1.1821060180664062
0.9580079913139343
0.4663900136947632
0.0328029990196228
-0.17976300418376923
-0.18433399498462677
-0.08578900247812271
0.007848000153899193
0.05744300037622452
0.07814399898052216
0.09041299670934677
0.10332199931144714
0.11945900321006775
0.1396699994802475
0.16440199315547943
0.19383199512958527
0.22778700292110443
0.26565998792648315
0.30635499954223633
0.3482939898967743
0.389477014541626
0.42762601375579834
0.46037399768829346
0.4855029881000519
0.5011829733848572
0.5061870217323303
0.5000380277633667
0.48307499289512634
0.4564160108566284
0.4218280017375946
0.3815290033817291
0.3379470109939575
0.29347699880599976
0.2502650022506714
0.21005399525165558
0.17409099638462067
0.14310899376869202
0.11736799776554108
0.09673500061035156
0.08078800141811371
0.06893099844455719
0.06048300117254257
0.0547650009393692
0.051148999482393265
0.04909300059080124
0.04815499857068062
0.04798800125718117
0.048333000391721725
0.04900600016117096
0.04987499862909317
0.050857000052928925
0.05197799950838089
0.05309399962425232
0.0541829988360405
0.055243998765945435
0.05627800151705742
0.05728499963879585
0.05826500058174133
0.05921800062060356
0.060145001858472824
0.061044998466968536
0.061918001621961594
0.06276500225067139
0.0635870024561882
0.06438200175762177
0.06515400111675262
0.06590399891138077
0.06664100289344788
0.06738600134849548
0.06818799674510956
0.0691550001502037
0.07050299644470215
0.07263500243425369
0.07622499763965607
0.08230199664831161
0.09224499762058258
0.10764200240373611
0.12992900609970093
0.15981900691986084
0.19664700329303741
0.23787200450897217
0.27903199195861816
0.3143619894981384
0.3380270004272461
0.3456510007381439
0.3355790078639984
0.3093920052051544
0.2714579999446869
0.2276889979839325
0.18400299549102783
0.14501699805259705
0.11314599961042404
0.08737599849700928
0.06017100065946579
0.016162000596523285
-0.051350999623537064
-0.10530199855566025
-0.05979600176215172
0.17140500247478485
0.5957130193710327
1.0297060012817383
1.1455140113830566
0.8263599872589111
0.32086798548698425
-0.07107000052928925
-0.2346159964799881
-0.20882999897003174
-0.10537400096654892
-0.020538000389933586
0.020893000066280365
0.03783699870109558
0.04868699982762337
0.06083900108933449
0.07636699825525284
0.09601300209760666
0.12018000334501266
0.1490049958229065
0.18227200210094452
0.2193329930305481
0.2590630054473877
0.2998709976673126
0.33976298570632935
0.37648800015449524
0.40772199630737305
0.4313029944896698
0.44545701146125793
0.44900500774383545
0.44150400161743164
0.4233039915561676
0.39551299810409546
0.3598720133304596
0.318558007478714
0.2739579975605011
0.228426992893219
0.18408699333667755
0.1426669955253601
0.10541799664497375
0.07308900356292725
0.04596500098705292
0.023939000442624092
0.006618000101298094
-0.006572999991476536
-0.01629900000989437
-0.023229999467730522
-0.027991000562906265
-0.031125999987125397
-0.03308400139212608
-0.03421799838542938
-0.03479500114917755
-0.03500799834728241
-0.03499099984765053
-0.03483600169420242
-0.03458800166845322
-0.03424600139260292
-0.03391600027680397
-0.033597998321056366
-0.033291999250650406
-0.03299599885940552
-0.03271099925041199
-0.032437000423669815
-0.03217199817299843
-0.03191699832677841
-0.03167099878191948
-0.03143399953842163
-0.031206000596284866
-0.030984999611973763
-0.03077000007033348
-0.030561000108718872
-0.030348999425768852
-0.030121000483632088
-0.02983899973332882
-0.029424000531435013
-0.028707999736070633
-0.027375999838113785
-0.02487899921834469
-0.020347999408841133
-0.012559999711811543
-9.999999747378752e-06
0.018835000693798065
0.0450580008327961
0.07867699861526489
0.11805800348520279
0.1596439927816391
0.19824199378490448
0.22797200083732605
0.2436559945344925
0.24223800003528595
0.22367900609970093
0.190993994474411
0.1493919938802719
0.10487399995326996
0.06279599666595459
0.026802999898791313
-0.0020039998926222324
-0.026936000213027
-0.0591140016913414
-0.11366699635982513
-0.18346400558948517
-0.20988400280475616
-0.10079099982976913
0.21028399467468262
0.6721770167350769
1.0280840396881104
0.9864410161972046
0.5697240233421326
0.07357300072908401
-0.2576900124549866
-0.36381301283836365
-0.30778199434280396
-0.20175200700759888
-0.1251329928636551
-0.08929099887609482
-0.0736979991197586
-0.06239699944853783
-0.04937300086021423
-0.03291900083422661
-0.012373000383377075
0.012632999569177628
0.042215000838041306
0.07615300267934799
0.11382000148296356
0.15414300560951233
0.19560499489307404
0.23631300032138824
0.27411699295043945
0.3067860007286072
0.3322170078754425
0.3486480116844177
0.3548490107059479
0.35026800632476807
0.3350929915904999
0.3102410137653351
0.27725398540496826
0.23813499510288239
0.19514299929141998
0.15057000517845154
0.10654299706220627
0.064860999584198
0.02689399942755699
-0.006457999814301729
-0.034752000123262405
-0.05794300138950348
-0.07630299776792526
-0.09031499922275543
-0.10058700293302536
-0.10776899755001068
-0.11248999834060669
-0.11531700193881989
-0.11673399806022644
-0.11713399738073349
-0.11682199686765671
-0.11602500081062317
-0.11490900069475174
-0.11358699947595596
-0.11213599890470505
-0.11052700132131577
-0.10889499634504318
-0.1072629988193512
-0.10562899708747864
-0.10399399697780609
-0.10235899686813354
-0.10072200000286102
-0.09908399730920792
-0.09744399785995483
-0.09580300003290176
-0.09416099637746811
-0.09251700341701508
-0.09087099879980087
-0.0892229974269867
-0.08757200092077255
-0.08591700345277786
-0.0842519998550415
-0.08256299793720245
-0.08081900328397751
-0.07894899696111679
-0.07680600136518478
-0.07411400228738785
-0.07038900256156921
-0.06486199796199799
-0.056428998708724976
-0.04369200021028519
-0.02515299990773201
0.0003980000037699938
0.03333999961614609
0.07264100015163422
0.11549600213766098
0.15739800035953522
0.19280600547790527
0.2163120061159134
0.22399799525737762
0.2145179957151413
0.1894949972629547
0.1530819982290268
0.11085200309753418
0.06842199712991714
0.030271999537944794
-0.0010639999527484179
-0.025970999151468277
-0.05026800185441971
-0.08751700073480606
-0.14876000583171844
-0.2121250033378601
-0.20638200640678406
-0.043359000235795975
0.32074499130249023
0.7898060083389282
1.0794990062713623
0.9397690296173096
0.47412899136543274
0.008557000197470188
-0.25315698981285095
-0.2947460114955902
-0.20758900046348572
-0.1062759980559349
-0.04661500081419945
-0.021034000441432
-0.007577000185847282
0.005245999898761511
0.020944999530911446
0.04056600108742714
0.06461799889802933
0.09334900230169296
0.12668800354003906
0.16414900124073029
0.20478099584579468
0.2471420019865036
0.289355993270874
0.32922500371932983
0.36440399289131165
0.3926289975643158
0.41194799542427063
0.4209499955177307
0.4189260005950928
0.4059639871120453
0.38294100761413574
0.3514240086078644
0.313495010137558
0.2715179920196533
0.2279050052165985
0.18488499522209167
0.14433300495147705
0.1076589971780777
0.075764000415802
0.04906199872493744
0.027549000456929207
0.01089600007981062
-0.001436999998986721
-0.010104999877512455
-0.015789000317454338
-0.01913600042462349
-0.020718000829219818
-0.021013999357819557
-0.020402999594807625
-0.01917400024831295
-0.01754000037908554
-0.015650000423192978
-0.013602999970316887
-0.01145199965685606
-0.009194999933242798
-0.006953000091016293
-0.004726999904960394
-0.002515000058338046
-0.00031999999191612005
0.0018609999679028988
0.0040259999223053455
0.006175000220537186
0.008307999931275845
0.010425000451505184
0.012527000159025192
0.014612000435590744
0.016681000590324402
0.018734000623226166
0.02077299915254116
0.02280299924314022
0.024836000055074692
0.02690500020980835
0.029082000255584717
0.03152000159025192
0.03451099991798401
0.038575999438762665
0.044544000178575516
0.0536080002784729
0.06726299971342087
0.08707000315189362
0.11419899761676788
0.14880500733852386
0.18942299485206604
0.2326440066099167
0.27334699034690857
0.3056100010871887
0.32409799098968506
0.3255229890346527
0.30961400270462036
0.2792209982872009
0.23949599266052246
0.19648699462413788
0.1556600034236908
0.12079799920320511
0.09315100312232971
0.06962200254201889
0.03931400179862976
-0.013156999833881855
-0.08169300109148026
-0.10842400044202805
-0.0006249999860301614
0.309594988822937
0.7723289728164673
1.129796028137207
1.0753819942474365
0.6406829953193665
0.15990200638771057
-0.12408900260925293
-0.17798499763011932
-0.09375199675559998
0.00675999978557229
0.06436599791049957
0.08802399784326553
0.10052700340747833
0.1130089983344078
0.12866699695587158
0.1484690010547638
0.17290599644184113
0.20217299461364746
0.23609000444412231
0.2740040123462677
0.31473401188850403
0.3565770089626312
0.39738500118255615
0.43473100662231445
0.4661239981651306
0.4892840087413788
0.5023980140686035
0.5043489933013916
0.49486100673675537
0.47453901171684265
0.44479799270629883
0.4076929986476898
0.3656750023365021
0.32131800055503845
0.2770580053329468
0.2349800020456314
0.19667699933052063
0.16318699717521667
0.13500599563121796
0.1121629998087883
0.09432700276374817
0.08092500269412994
0.07126300036907196
0.06461799889802933
0.06030699983239174
0.05773400142788887
0.056405000388622284
0.05593400076031685
0.05603199824690819
0.056492000818252563
0.057169001549482346
0.05796999856829643
0.05891900137066841
0.05986599996685982
0.06078600138425827
0.06167899817228317
0.0625469982624054
0.06338699907064438
0.06420200318098068
0.06499099731445312
0.06575500220060349
0.06649199873209
0.06720499694347382
0.06789200007915497
0.06855499744415283
0.06919299811124802
0.0698079988360405
0.0704059973359108
0.07099799811840057
0.07161500304937363
0.07232899963855743
0.07329700142145157
0.07482600212097168
0.07746999710798264
0.08212699741125107
0.09008999913930893
0.10297100245952606
0.12240900099277496
0.14951999485492706
0.1841849982738495
0.2243960052728653
0.2660140097141266
0.3032279908657074
0.32976698875427246
0.3405590057373047
0.3332520127296448
0.3089660108089447
0.27196601033210754
0.2283789962530136
0.18449300527572632
0.14527000486850739
0.11331900209188461
0.08753900229930878
0.059693001210689545
0.01347300037741661
-0.05546800047159195
-0.10141299664974213
-0.03020000085234642
0.2417069971561432
0.6914860010147095
1.0759639739990234
1.0669840574264526
0.6583309769630432
0.16339099407196045
-0.157943993806839
-0.24788899719715118
-0.18077600002288818
-0.076603002846241
-0.00916799996048212
0.019620999693870544
0.03254299983382225
0.043529998511075974
0.05708799883723259
0.07448499649763107
0.09628999978303909
0.12279599905014038
0.15397599339485168
0.18939000368118286
0.2281150072813034
0.2687259912490845
0.3093400001525879
0.34772801399230957
0.38149699568748474
0.4083229899406433
0.4261949956417084
0.43365201354026794
0.42995500564575195
0.4151900112628937
0.39025500416755676
0.35676300525665283
0.31685200333595276
0.27294400334358215
0.22749899327754974
0.182778999209404
0.14067000150680542
0.102572001516819
0.06935899704694748
0.041405998170375824
0.018665999174118042
0.0007719999994151294
-0.012849000282585621
-0.022874999791383743
-0.029999999329447746
-0.03487199917435646
-0.03805999830365181
-0.04003100097179413
-0.04115400090813637
-0.04170599952340126
-0.04188700020313263
-0.0418349988758564
-0.04164300113916397
-0.04135800153017044
-0.04098299890756607
-0.04061799868941307
-0.040265001356601715
-0.03992300108075142
-0.039590999484062195
-0.039267998188734055
-0.03895600140094757
-0.038651999086141586
-0.03835799917578697
-0.038072001188993454
-0.03779299929738045
-0.03752300143241882
-0.03725900128483772
-0.037000998854637146
-0.03674599900841713
-0.03648500144481659
-0.036198001354932785
-0.03583599999547005
-0.03529300168156624
-0.034352000802755356
-0.03260999917984009
-0.02938699908554554
-0.023643000051379204
-0.013980000279843807
0.0012110000243410468
0.02337699942290783
0.0532200001180172
0.09002000093460083
0.1311350017786026
0.1719769984483719
0.20667199790477753
0.2293500006198883
0.23571300506591797
0.2242940068244934
0.19692599773406982
0.1582060009241104
0.11418300122022629
0.0707779973745346
0.032481998205184937
0.0014550000196322799
-0.02387700043618679
-0.05218299850821495
-0.0993880033493042
-0.16842900216579437
-0.21386399865150452
-0.14482399821281433
0.11996699869632721
0.5647940039634705
0.9674440026283264
1.0032850503921509
0.6289849877357483
0.12518799304962158
-0.2368299961090088
-0.37160399556159973
-0.3303619921207428
-0.22475400567054749
-0.14287999272346497
-0.10328199714422226
-0.0863960012793541
-0.07491400092840195
-0.0620030015707016
-0.045722998678684235
-0.025366000831127167
-0.0005380000220611691
0.028898000717163086
0.06274399906396866
0.10039100050926208
0.1407729983329773
0.1823740005493164
0.22328700125217438
0.26134300231933594
0.2942799925804138
0.3199619948863983
0.33660000562667847
0.3429439961910248
0.33843499422073364
0.3232690095901489
0.2983820140361786
0.26534900069236755
0.22620899975299835
0.18325300514698029
0.1387999951839447
0.09499099850654602
0.05362800136208534
0.01607299968600273
-0.01679600030183792
-0.04456000030040741
-0.06720399856567383
-0.08502300083637238
-0.09852200001478195
-0.10832399874925613
-0.11508899927139282
-0.11944600194692612
-0.12196200340986252
-0.12311600148677826
-0.12329299747943878
-0.12279000133275986
-0.12182900309562683
-0.12056799978017807
-0.1191139966249466
-0.11754299700260162
-0.11582700163125992
-0.11409100145101547
-0.11235500127077103
-0.11061800271272659
-0.10888200253248215
-0.10714499652385712
-0.1054069995880127
-0.10366900265216827
-0.10192999988794327
-0.10019099712371826
-0.09845100343227386
-0.09670999646186829
-0.09496700018644333
-0.09322399646043777
-0.09147799760103226
-0.0897269994020462
-0.0879649966955185
-0.08617199957370758
-0.08431000262498856
-0.08228699862957001
-0.07992400228977203
-0.07688300311565399
-0.07259199768304825
-0.0661650002002716
-0.056377001106739044
-0.04174499958753586
-0.020798999816179276
0.0074640000239014626
0.04298299923539162
0.08409500122070312
0.12728700041770935
0.167494997382164
0.19899900257587433
0.2167460024356842
0.21768799424171448
0.20165599882602692
0.17142899334430695
0.1319659948348999
0.08909499645233154
0.048138998448848724
0.012872000224888325
-0.015251999720931053
-0.03863599896430969
-0.0667560026049614
-0.1148499995470047
-0.1829030066728592
-0.2244199961423874
-0.15259000658988953
0.10931099951267242
0.5504310131072998
0.9713619947433472
1.0586869716644287
0.7224590182304382
0.2182459980249405
-0.16167299449443817
-0.31261399388313293
-0.2788029909133911
-0.17286500334739685
-0.08815699815750122
-0.04646800085902214
-0.02828099951148033
-0.01570099964737892
-0.0016749999485909939
0.01577400043606758
0.037363000214099884
0.06348799914121628
0.09427300095558167
0.12949399650096893
0.16849200427532196
0.21013599634170532
0.2528280019760132
0.2945779860019684
0.33313700556755066
0.36619099974632263
0.3915899991989136
0.4075720012187958
0.4129689931869507
0.4073469936847687
0.3910579979419708
0.36521100997924805
0.33153900504112244
0.29221200942993164
0.24960699677467346
0.20607100427150726
0.16371899843215942
0.12427499890327454
0.08899000287055969
0.05861499905586243
0.03343699872493744
0.013356000185012817
-0.0020179999992251396
-0.013256999664008617
-0.02102000080049038
-0.025978000834584236
-0.028754999861121178
-0.029896000400185585
-0.029851000756025314
-0.02897600084543228
-0.027538999915122986
-0.025735000148415565
-0.02370000071823597
-0.021528000012040138
-0.01926399953663349
-0.01690799929201603
-0.014569000340998173
-0.01224599964916706
-0.009940999560058117
-0.007652999833226204
-0.0053820000030100346
-0.003129000077024102
-0.0008929999894462526
0.0013259999686852098
0.003527000080794096
0.005710000172257423
0.00787500012665987
0.010022000409662724
0.012152000330388546
0.014267000369727612
0.016371000558137894
0.01847900077700615
0.02062400057911873
0.022880999371409416
0.02540699951350689
0.028502000495791435
0.03268999978899956
0.0388059988617897
0.0480399988591671
0.06187500059604645
0.08184800297021866
0.10910499840974808
0.14378799498081207
0.18444199860095978
0.2277050018310547
0.26853200793266296
0.30107399821281433
0.3200330138206482
0.32208898663520813
0.3068690001964569
0.27707400918006897
0.23771800100803375
0.1947679966688156
0.15369200706481934
0.1183599978685379
0.0902239978313446
0.06668099761009216
0.03769800066947937
-0.01221999991685152
-0.08080299943685532
-0.11641000211238861
-0.02869500033557415
0.2560890018939972
0.7094449996948242
1.1015690565109253
1.1216119527816772
0.7353630065917969
0.236162006855011
-0.10329700261354446
-0.21061399579048157
-0.15160299837589264
-0.04534199833869934
0.027806000784039497
0.06060599908232689
0.07544399797916412
0.08744800090789795
0.10175599902868271
0.11979600042104721
0.1421699970960617
0.16920199990272522
0.20090800523757935
0.2369070053100586
0.27634701132774353
0.31787699460983276
0.3596839904785156
0.39959099888801575
0.43523499369621277
0.4642789959907532
0.48466500639915466
0.4948450028896332
0.49396300315856934
0.48197099566459656
0.459634006023407
0.4284450113773346
0.3904530107975006
0.34803301095962524
0.3036389946937561
0.2595680058002472
0.21777300536632538
0.17973800003528595
0.14643099904060364
0.11831799894571304
0.09542500227689743
0.07744500041007996
0.06383900344371796
0.05394899845123291
0.04708399996161461
0.04258299991488457
0.03986499831080437
0.038440000265836716
0.03791999816894531
0.038012001663446426
0.03849799931049347
0.039229001849889755
0.040102001279592514
0.0410659983754158
0.042121000587940216
0.04314799979329109
0.04414600133895874
0.04511699825525284
0.046059999614953995
0.0469760000705719
0.047864001244306564
0.048725999891757965
0.049559999257326126
0.05036799982190132
0.05115000158548355
0.05190499871969223
0.05263499915599823
0.05333999916911125
0.05402199923992157
0.054687999188899994
0.055351998656988144
0.05605199933052063
0.05687100067734718
0.057982999831438065
0.05971800163388252
0.0626550018787384
0.06770399957895279
0.07614299654960632
0.08952900022268295
0.10941100120544434
0.13681000471115112
0.1715649962425232
0.21174800395965576
0.2534390091896057
0.2911359965801239
0.31883201003074646
0.3315240144729614
0.32662901282310486
0.30477601289749146
0.26963499188423157
0.22685599327087402
0.182545006275177
0.14182500541210175
0.10783199965953827
0.08071999996900558
0.05511699989438057
0.01718599908053875
-0.04535000026226044
-0.10979299992322922
-0.09970200061798096
0.0779149979352951
0.4610390067100525
0.9220679998397827
1.1429929733276367
0.9228360056877136
0.43293699622154236
-0.011704999953508377
-0.24374499917030334
-0.2659910023212433
-0.1740729957818985
-0.07639600336551666
-0.02090200036764145
0.0022479998879134655
0.01412499975413084
0.025502000004053116
0.03969699889421463
0.057718999683856964
0.0800660029053688
0.10698799788951874
0.13843600451946259
0.17397400736808777
0.2127230018377304
0.25334200263023376
0.29406601190567017
0.3328059911727905
0.3673059940338135
0.395346999168396
0.4149709939956665
0.4246880114078522
0.42364999651908875
0.41175299882888794
0.3896540105342865
0.3586980104446411
0.3207719922065735
0.2781049907207489
0.23303599655628204
0.18780599534511566
0.14436699450016022
0.10426200181245804
0.0685570016503334
0.03784099966287613
0.012273999862372875
-0.008334999904036522
-0.024424999952316284
-0.03658699989318848
-0.0454769991338253
-0.051743000745773315
-0.055980999022722244
-0.05870300158858299
-0.060329001396894455
-0.06118899956345558
-0.06153099983930588
-0.06153399869799614
-0.06132299825549126
-0.06098200008273125
-0.06055299937725067
-0.060033999383449554
-0.05952699854969978
-0.05903000012040138
-0.05854300037026405
-0.05806700140237808
-0.05759900063276291
-0.05714099854230881
-0.0566909983754158
-0.05624900013208389
-0.05581599846482277
-0.055390000343322754
-0.05497099831700325
-0.054558999836444855
-0.054152000695466995
-0.0537480004131794
-0.05334300175309181
-0.052921999245882034
-0.05245500057935715
-0.05186900123953819
-0.051020000129938126
-0.04962899908423424
-0.04720599949359894
-0.04296899959445
-0.03579600155353546
-0.024261999875307083
-0.00684799998998642
0.01766199991106987
0.049605999141931534
0.08786100149154663
0.12947900593280792
0.16978999972343445
0.20313400030136108
0.2240860015153885
0.2288540005683899
0.21634900569915771
0.18851299583911896
0.14978599548339844
0.10590499639511108
0.062488000839948654
0.02386300079524517
-0.00773700000718236
-0.033319998532533646
-0.0600069984793663
-0.10245499759912491
-0.16853299736976624
-0.2267809957265854
-0.19776399433612823
0.00467800023034215
0.4048660099506378
0.861581027507782
1.0646940469741821
0.8350129723548889
0.34424200654029846
-0.10173700004816055
-0.33928701281547546
-0.3681980073451996
-0.2789590060710907
-0.17845800518989563
-0.11843399703502655
-0.09237799793481827
-0.07933100312948227
-0.06757300347089767
-0.053279999643564224
-0.03531400114297867
-0.013148000463843346
0.013507000170648098
0.04467000067234039
0.08000800013542175
0.11877500265836716
0.15978799760341644
0.20144200325012207
0.24179300665855408
0.2786880135536194
0.3099449872970581
0.3335619866847992
0.34791299700737
0.351936012506485
0.34524500370025635
0.32818400859832764
0.3017899990081787
0.2676829993724823
0.2278980016708374
0.18467700481414795
0.1402589976787567
0.09669200330972672
0.055684998631477356
0.018519999459385872
-0.013981999829411507
-0.04144199937582016
-0.06385699659585953
-0.08152099698781967
-0.094930000603199
-0.10468599945306778
-0.11142999678850174
-0.11577600240707397
-0.11827900260686874
-0.11940799653530121
-0.11954499781131744
-0.11898600310087204
-0.11795400083065033
-0.11660899966955185
-0.11506099998950958
-0.11338800191879272
-0.1115569993853569
-0.10970299690961838
-0.10785000026226044
-0.1059970036149025
-0.10414499789476395
-0.102292001247406
-0.10043899714946747
-0.09858600050210953
-0.09673299640417099
-0.09487999975681305
-0.09302700310945511
-0.09117399901151657
-0.08931999653577805
-0.08746600151062012
-0.08561000227928162
-0.08375199884176254
-0.08188699930906296
-0.08000300079584122
-0.07807199656963348
-0.07603400200605392
-0.0737600028514862
-0.07100699841976166
-0.06734400242567062
-0.06207500025629997
-0.05418400093913078
-0.04234600067138672
-0.02508700080215931
-0.0011060000397264957
0.030216999351978302
0.06825699657201767
0.11071600019931793
0.15356400609016418
0.19153299927711487
0.2191309928894043
0.2319529950618744
0.2278430014848709
0.2075120061635971
0.17435599863529205
0.13354900479316711
0.09074799716472626
0.050845999270677567
0.017078999429941177
-0.009723999537527561
-0.0329120010137558
-0.0630979984998703
-0.1147959977388382
-0.18317799270153046
-0.2165050059556961
-0.12853999435901642
0.15098300576210022
0.5999339818954468
1.0107840299606323
1.0805250406265259
0.7328389883041382
0.22868500649929047
-0.14564600586891174
1.0634679794311523
0.839572012424469
0.36007899045944214
-0.08134199678897858
-0.32318198680877686
-0.36031201481819153
-0.27625200152397156
-0.17489799857139587
-0.11134299635887146
-0.08291000127792358
-0.0693259984254837
-0.058139998465776443
-0.04504099860787392
-0.028744999319314957
-0.008654999546706676
0.015622000209987164
0.04427900165319443
0.07722599804401398
0.11402300000190735
0.1538269966840744
0.1953819990158081
0.2370550036430359
0.2769179940223694
0.31289100646972656
0.34291499853134155
0.36514198780059814
0.37812599539756775
0.38097599148750305
0.37345701456069946
0.356018990278244
0.32975301146507263
0.2962779998779297
0.2575779855251312
0.21580299735069275
0.17308099567890167
0.13134300708770752
0.09218800067901611
0.05681199952960014
0.025971999391913414
1.4999999621068127e-05
-0.021067999303340912
-0.037560999393463135
-0.04993699863553047
-0.05877399817109108
-0.06468299776315689
-0.0682540014386177
-0.07001999765634537
-0.07043500244617462
-0.06987199932336807
-0.06862100213766098
-0.06690199673175812
-0.06487400084733963
-0.06264899671077728
-0.060304999351501465
-0.05787799879908562
-0.055364999920129776
-0.05286499857902527
-0.05037799850106239
-0.04790399968624115
-0.04544299840927124
-0.04299499839544296
-0.0405610017478466
-0.03813999891281128
-0.035732001066207886
-0.0333390012383461
-0.030959000810980797
-0.028593000024557114
-0.026240000501275063
-0.02390200085937977
-0.021578000858426094
-0.019267000257968903
-0.01696700043976307
-0.014671999961137772
-0.01236599963158369
-0.010014999657869339
-0.007544000167399645
-0.004801000002771616
-0.0015069999499246478
0.0028180000372231007
0.008918999694287777
0.01785299926996231
0.030938999727368355
0.049584001302719116
0.074925996363163
0.10734999924898148
0.1459610015153885
0.18824400007724762
0.2300959974527359
0.2663689851760864
0.29189199209213257
0.3026849925518036
0.296999990940094
0.2758139967918396
0.242575004696846
0.20231500267982483
0.16042500734329224
0.12151700258255005
0.08863700181245804
0.06267099827528
0.04096699878573418
0.014450999908149242
-0.031163999810814857
-0.09707500040531158
-0.14317600429058075
-0.09047699719667435
0.13672900199890137
0.5471699833869934
0.9900109767913818
1.1727650165557861
0.9274880290031433
0.4403519928455353
0.02213199995458126
-0.1790190041065216
-0.17996999621391296
-0.08292999863624573
0.00849900022149086
0.05688000097870827
0.0766879990696907
0.08776099979877472
0.09905300289392471
0.11316700279712677
0.13097800314426422
0.15299899876117706
0.1795320063829422
0.2105959951877594
0.24583600461483002
0.2844499945640564
0.32517099380493164
0.3662880063056946
0.40573999285697937
0.4412739872932434
0.470645010471344
0.49184298515319824
0.5033149719238281
0.504148006439209
0.4941760003566742
0.4740079939365387
0.44495999813079834
0.40890800952911377
0.3680819869041443
0.32482999563217163
0.2814030051231384
0.23975899815559387
0.2014400064945221
0.1675020009279251
0.13851800560951233
0.11462900042533875
0.09562499821186066
0.08104900270700455
0.07029800117015839
0.06271400302648544
0.05764799937605858
0.05451200157403946
0.05280299857258797
0.052111998200416565
0.05212099850177765
0.05259599909186363
0.05336499959230423
0.054311998188495636
0.055358998477458954
0.056467000395059586
0.057635001838207245
0.058775998651981354
0.05988899990916252
0.06097700074315071
0.06203699856996536
0.06307099759578705
0.06407800316810608
0.06505899876356125
0.06601399928331375
0.06694299727678299
0.06784600019454956
0.06872399896383286
0.0695749968290329
0.07040099799633026
0.07120399922132492
0.07198400050401688
0.07274799793958664
0.07351399958133698
0.07431899756193161
0.07524999976158142
0.07648299634456635
0.07834900170564651
0.08141700178384781
0.0865740031003952
0.09505599737167358
0.10835599899291992
0.1279509961605072
0.1548209935426712
0.1888349950313568
0.22819900512695312
0.26923999190330505
0.306753009557724
0.3349809944629669
0.3490079939365387
0.34610599279403687
0.3265460133552551
0.29353800415992737
0.25231999158859253
0.20876599848270416
0.1680009961128235
0.13342800736427307
0.10601499676704407
0.08263999968767166
0.05278300121426582
0.0013569999719038606
-0.06695900112390518
-0.09785400331020355
-0.0016280000563710928
0.29058098793029785
0.7396299839019775
1.106181025505066
1.092514991760254
0.6941369771957397
0.20583899319171906
-0.11969900131225586
-0.22042299807071686
-0.1621749997138977
-0.059422001242637634
0.010999999940395355
0.04182799905538559
0.054489001631736755
0.0638279989361763
0.07502000033855438
0.08952999860048294
0.1080079972743988
0.13087299466133118
0.1583070009946823
0.19016100466251373
0.22587600350379944
0.2644270062446594
0.30432599782943726
0.3436790108680725
0.3803060054779053
0.4119270145893097
0.43637698888778687
0.4518370032310486
0.4570409953594208
0.4514249861240387
0.4352000057697296
0.4093340039253235
0.3754369914531708
0.3355900049209595
0.2921130061149597
0.24733899533748627
0.20339800417423248
0.16206100583076477
0.12464100122451782
0.09195400029420853
0.06435400247573853
0.0417959988117218
0.023936999961733818
0.010235000401735306
4.8999998398358e-05
-0.007282999809831381
-0.012384000234305859
-0.015805000439286232
-0.017999999225139618
-0.019332999363541603
-0.020078999921679497
-0.02043999917805195
-0.020555999130010605
-0.020524000748991966
-0.020406000316143036
-0.020184999331831932
-0.019960999488830566
-0.019749000668525696
-0.019548999145627022
-0.019359000027179718
-0.01918100006878376
-0.01901400089263916
-0.018856000155210495
-0.01870799995958805
-0.018570000305771828
-0.01844099909067154
-0.018319999799132347
-0.01820800080895424
-0.01810400001704693
-0.018007000908255577
-0.017914999276399612
-0.017823999747633934
-0.01772399991750717
-0.017587000504136086
-0.01735600084066391
-0.016901999711990356
-0.015977999195456505
-0.014139000326395035
-0.01065600011497736
-0.004453999921679497
0.005861999932676554
0.021825000643730164
0.04472599923610687
0.07503800094127655
0.11180300265550613
0.15222300589084625
0.19171999394893646
0.22462999820709229
0.24545100331306458
0.25028300285339355
0.23794600367546082
0.21035200357437134
0.1719599962234497
0.12854300439357758
0.08573299646377563
0.04782700166106224
0.017026999965310097
-0.007571999914944172
-0.03272499889135361
-0.07291299849748611
-0.13696600496768951
-0.1950089931488037
-0.1679919958114624
0.030880000442266464
0.42552700638771057
0.8706560134887695
1.0536589622497559
0.8064849972724915
0.3195219933986664
-0.10853700339794159
-0.3276529908180237
-0.34539300203323364
-0.2545669972896576
-0.15867100656032562
-0.10376100242137909
-0.08088500052690506
-0.06972800195217133
-0.059581998735666275
-0.04705199971795082
-0.03109000064432621
-0.011144000105559826
0.013144000433385372
0.0418969988822937
0.0749180018901825
0.11162199825048447
0.15099599957466125
0.19159400463104248
0.2316029965877533
0.2689509987831116
0.30147600173950195
0.3271160125732422
0.3441219925880432
0.3512429893016815
0.34786900877952576
0.33410200476646423
0.31075000762939453
0.27924299240112305
0.24147699773311615
0.1996230036020279
0.15591199696063995
0.11244100332260132
0.0710119977593422
0.03302599862217903
-0.0005699999746866524
-0.02927500009536743
-0.05298199877142906
-0.07190600037574768
-0.08648499846458435
-0.09729199856519699
-0.10495500266551971
-0.11009199917316437
-0.11326900124549866
-0.1149739995598793
-0.11560700088739395
-0.11548399925231934
-0.11484099924564362
-0.11385100334882736
-0.112636998295784
-0.11128199845552444
-0.10983800143003464
-0.10829000174999237
-0.1067269966006279
-0.10516300052404404
-0.1035970002412796
-0.10203000158071518
-0.10046199709177017
-0.09889200329780579
-0.09731999784708023
-0.0957460030913353
-0.09417100250720978
-0.0925929993391037
-0.09101399779319763
-0.0894320011138916
-0.08784899860620499
-0.08626200258731842
-0.08467099815607071
-0.08307400345802307
-0.08146300166845322
-0.07981699705123901
-0.07809499651193619
-0.07620199769735336
-0.07395199686288834
-0.07100500166416168
-0.06679099798202515
-0.06043799966573715
-0.05075500160455704
-0.036315999925136566
-0.01571900025010109
0.011979999952018261
0.04671100154519081
0.08688200265169144
0.1291539967060089
0.16870500147342682
0.20005899667739868
0.21830900013446808
0.22038400173187256
0.2059060037136078
0.1773120015859604
0.13919800519943237
0.09712400287389755
0.05631500110030174
0.020642999559640884
-0.008023000322282314
-0.030796999111771584
-0.05438299849629402
-0.0926709994673729
-0.15445299446582794
-0.21325500309467316
-0.19597700238227844
-0.01825300045311451
0.35456401109695435
0.8128960132598877
1.0714319944381714
0.9100099802017212
0.44648900628089905
-0.007569999899715185
-0.26303398609161377
-0.30570700764656067
-0.2219890058040619
-0.12165199965238571
-0.06092400103807449
-0.03477700054645538
-0.02202099934220314
-0.01076900027692318
0.0027910000644624233
0.019801000133156776
0.04083799943327904
0.06627500057220459
0.09623800218105316
0.13052499294281006
0.16852399706840515
0.2091740071773529
0.25096800923347473
0.29201799631118774
0.33017799258232117
0.3632209897041321
0.38905200362205505
0.405921995639801
0.4126259982585907
0.4086419939994812
0.394199013710022
0.37024998664855957
0.33837100863456726
0.30059000849723816
0.2591719925403595
0.21639500558376312
0.17435400187969208
0.1348010003566742
0.09904699772596359
0.06793099641799927
0.041832998394966125
0.020747000351548195
0.004364999942481518
-0.007823999971151352
-0.016439000144600868
-0.02212899923324585
-0.0255110003054142
-0.0271380003541708
-0.027473000809550285
-0.026890000328421593
-0.0256740003824234
-0.024038000032305717
-0.02213199995458126
-0.02006099931895733
-0.017892999574542046
-0.01566299982368946
-0.013372999615967274
-0.011098000220954418
-0.008839000016450882
-0.00659599993377924
-0.004368999972939491
-0.0021569998934865
3.7000001611886546e-05
0.002216000109910965
0.004377999808639288
0.006523999851197004
0.008652999997138977
0.010765000246465206
0.012860000133514404
0.014937999658286572
0.017000999301671982
0.019050000235438347
0.021090999245643616
0.023141000419855118
0.025237999856472015
0.027465999126434326
0.02999800071120262
0.033153001219034195
0.037480998784303665
0.043839000165462494
0.053419001400470734
0.067671999335289
0.08805599808692932
0.11559099704027176
0.15027199685573578
0.19052499532699585
0.23295600712299347
0.27261799573898315
0.30387499928474426
0.321709007024765
0.3230449855327606
0.3076370060443878
0.2781600058078766
0.23946300148963928
0.19728399813175201
0.15689000487327576
0.12204600125551224
0.09433700144290924
0.07196199893951416
0.04673700034618378
0.0037640000227838755
-0.061438001692295074
-0.1109590008854866
-0.06267599761486053
0.16442300379276276
0.5786830186843872
1.0131850242614746
1.1578459739685059
0.8742280006408691
0.38114500045776367
-0.012391000054776669
-0.18026700615882874
-0.15744900703430176
-0.05556400120258331
0.027938999235630035
0.06826300173997879
0.08460599929094315
0.09509199857711792
0.10678700357675552
0.12165000289678574
0.1404300034046173
0.16359800100326538
0.19138899445533752
0.22371000051498413
0.2600489854812622
0.2994160056114197
0.3403320014476776
0.3808850049972534
0.4188520014286041
0.45188599824905396
0.47774699330329895
0.4945429861545563
0.5009499788284302
0.49637699127197266
0.48104000091552734
0.4559420049190521
0.42275699973106384
0.383637011051178
0.3409770131111145
0.29716598987579346
0.25436899065971375
0.21436500549316406
0.1784439980983734
0.14738500118255615
0.12148600071668625
0.10064700245857239
0.08447299897670746
0.07237999886274338
0.06369999796152115
0.05775599926710129
0.05392200127243996
0.05165499821305275
0.05051000043749809
0.050140999257564545
0.050287000834941864
0.05076000094413757
0.05143300071358681
0.05221699923276901
0.053070999681949615
0.053991999477148056
0.054885998368263245
0.05575300008058548
0.05659399926662445
0.05740800127387047
0.05819699913263321
0.058958999812603
0.059696000069379807
0.06040700152516365
0.06109299883246422
0.06175300106406212
0.06238900125026703
0.06300000101327896
0.0635870024561882
0.06414999812841415
0.06469400227069855
0.06522399932146072
0.06576000154018402
0.06634700298309326
0.06708600372076035
0.06817799806594849
0.07000300288200378
0.0732090026140213
0.07878799736499786
0.08808600157499313
0.1026730015873909
0.12399400025606155
0.15280599892139435
0.18852800130844116
0.2287220060825348
0.2690269947052002
0.30375200510025024
0.3270989954471588
0.3346860110759735
0.3248240053653717
0.2990489900112152
0.2616739869117737
0.21855799853801727
0.1755640059709549
0.13725799322128296
0.10606800019741058
0.08127199858427048
0.05620500072836876
0.016140000894665718
-0.04807199910283089
-0.10536500066518784
-0.07387900352478027
0.13462099432945251
0.5386719703674316
0.975009024143219
1.120089054107666
0.8367649912834167
0.34317299723625183
-0.06335999816656113
-0.2522450089454651
-0.2470880001783371
-0.1497959941625595
-0.060180000960826874
-0.013225999660789967
0.005541000049561262
0.015546999871730804
0.025668999180197716
0.03853200003504753
0.055013999342918396
0.07562699913978577
0.10068099945783615
0.13022199273109436
0.1639380007982254
0.2010989934206009
0.24052299559116364
0.28059300780296326
0.31934401392936707
0.35459500551223755
0.3841420114040375
0.4059680104255676
0.4184570014476776
0.4205799996852875
0.4120109975337982
0.3931710124015808
0.36518898606300354
0.3297699987888336
0.28901898860931396
0.2452169954776764
0.2006080001592636
0.15720699727535248
0.11665699630975723
0.08015000075101852
0.048402998596429825
0.021695999428629875
-5.999999848427251e-05
-0.017230000346899033
-0.0303569994866848
-0.040070001035928726
-0.04701299965381622
-0.05178999900817871
-0.05492899939417839
-0.05687199905514717
-0.05796999856829643
-0.05848800018429756
-0.05862399935722351
-0.05851300060749054
-0.0582519993185997
-0.057902999222278595
-0.05744500085711479
-0.05698100104928017
-0.056526001542806625
-0.056081999093294144
-0.05564599856734276
-0.05521899834275246
-0.05480000004172325
-0.05438999831676483
-0.05398700013756752
-0.05359100177884102
-0.05320199951529503
-0.05281899869441986
-0.0524430014193058
-0.05207199975848198
-0.05170600116252899
-0.051343999803066254
-0.0509830005466938
-0.050613999366760254
-0.050216998904943466
-0.049747999757528305
-0.04910999909043312
-0.04810800030827522
-0.0463859997689724
-0.04334399849176407
-0.038068000227212906
-0.02931099943816662
-0.015599999576807022
0.004478999879211187
0.03180500119924545
0.0661339983344078
0.10558900237083435
0.14648500084877014
0.1836950033903122
0.21161000430583954
0.22546300292015076
0.2226170003414154
0.20332199335098267
0.17066599428653717
0.129721999168396
0.08622200042009354
0.04523700103163719
0.010220999829471111
-0.017650000751018524
-0.040911998599767685
-0.06894200295209885
-0.11674299836158752
-0.18444600701332092
-0.22658999264240265
-0.15794700384140015
0.09704200178384781
0.5282170176506042
0.9403600096702576
1.0255939960479736
0.6997519731521606
0.203125
-0.19412800669670105
-0.3796049952507019
-0.3770979940891266
-0.28095000982284546
-0.18688000738620758
-0.13366800546646118
-0.11093000322580338
-0.09933999925851822
-0.08876200020313263
-0.07590699940919876
-0.059741001576185226
-0.039726998656988144
-0.01550699956715107
0.01306500006467104
0.0458500012755394
0.08235500007867813
0.12168999761343002
0.1625639945268631
0.20332500338554382
0.24205000698566437
0.2766849994659424
0.3052150011062622
0.3258560001850128
0.33722901344299316
0.3385089933872223
0.3295170068740845
0.3107430040836334
0.28329598903656006
0.24879500269889832
0.20920300483703613
0.1666419953107834
0.12320200353860855
0.08077800273895264
0.0409419983625412
0.004865000024437904
-0.026704000309109688
-0.05341999977827072
-0.07528600096702576
-0.0925770029425621
-0.10575299710035324
-0.11537999659776688
-0.12206000089645386
-0.1263750046491623
-0.12885400652885437
-0.12995199859142303
-0.1300400048494339
-0.1294119954109192
-0.12829099595546722
-0.12683700025081635
-0.12516699731349945
-0.12336000055074692
-0.12146800011396408
-0.11947199702262878
-0.11746100336313248
-0.11545299738645554
-0.11344599723815918
-0.11144000291824341
-0.10943599790334702
-0.10743299871683121
-0.10543099790811539
-0.10343000292778015
-0.1014309972524643
-0.09943299740552902
-0.09743600338697433
-0.09544000029563904
-0.09344500303268433
-0.091450996696949
-0.08945699781179428
-0.08746200054883957
-0.08545999974012375
-0.08344099670648575
-0.08137600123882294
-0.07920700311660767
-0.07681100070476532
-0.07396099716424942
-0.07025499641895294
-0.06505300104618073
-0.05741799995303154
-0.046128999441862106
-0.02980099990963936
-0.007166000083088875
0.02248699963092804
0.05880799889564514
0.09995300322771072
0.14246100187301636
0.18157799541950226
0.21208199858665466
0.229420006275177
0.23084700107574463
0.21615099906921387
0.18773800134658813
0.15000100433826447
0.10824199765920639
0.0674780011177063
0.03150799870491028
0.002309999894350767
-0.020747000351548195
-0.04309700056910515
-0.07715000212192535
-0.13426099717617035
-0.19870500266551971
-0.20957399904727936
-0.08414900302886963
0.23185500502586365
0.6873859763145447
1.0541839599609375
1.059404969215393
0.6839269995689392
0.19074499607086182
-0.16388599574565887
-0.29884201288223267
-0.2614330053329468
-0.15740099549293518
-0.07350300252437592
-0.03128499910235405
-0.013182999566197395
-0.0017549999756738544
0.010355999693274498
0.025311000645160675
0.043891001492738724
0.06657099723815918
0.09363699704408646
0.12511299550533295
0.1606840044260025
0.19963499903678894
0.24081699550151825
0.28267401456832886
0.32331201434135437
0.3606260120868683
0.3924809992313385
0.41690200567245483
0.43228399753570557
0.43755999207496643
0.43232300877571106
0.41687899827957153
0.3922150135040283
0.3598940074443817
0.32189300656318665
0.2804020047187805
0.23761500418186188
0.1955520063638687
0.15590399503707886
0.11994899809360504
0.08851499855518341
0.0619949996471405
0.040410999208688736
0.023489000275731087
0.010753000155091286
0.0016159999649971724
-0.004546999931335449
-0.008342999964952469
-0.010317999869585037
-0.010936999693512917
-0.010579999536275864
-0.009544000029563904
-0.008050000295042992
-0.006258999928832054
-0.004284000024199486
-0.0022009999956935644
-4.70000013592653e-05
0.0021800000686198473
0.004385000094771385
0.006568999961018562
0.008732999674975872
0.010874999687075615
0.012996000237762928
0.0150950001552701
0.017172999680042267
0.019229000434279442
0.021263999864459038
0.023276999592781067
0.02526799961924553
0.027236999943852425
0.02918500080704689
0.03111100010573864
0.03301599994301796
0.034905001521110535
0.03678499907255173
0.038676001131534576
0.04062600061297417
0.04273499920964241
0.045198000967502594
0.04837099835276604
0.05284300073981285
0.059505999088287354
0.06956499814987183
0.08444499969482422
0.10552100092172623
0.13367700576782227
0.1687610000371933
0.209089994430542
0.25125598907470703
0.29041698575019836
0.3211340010166168
0.33859699964523315
0.33985400199890137
0.3246360123157501
0.2954460084438324
0.2568899989128113
0.2144930064678192
0.1734199970960617
0.13748300075531006
0.10851000249385834
0.08536200225353241
0.061358001083135605
0.022707000374794006
-0.039409998804330826
-0.09909900277853012
-0.08420699834823608
0.08924499899148941
0.4574419856071472
0.9161800146102905
1.1850589513778687
1.0327160358428955
0.571045994758606
0.11505699902772903
-0.141758993268013
-0.1845259964466095
-0.10099200159311295
-0.002041999949142337
0.05667399987578392
0.0811619982123375
0.09275799989700317
0.10308799892663956
0.11580999940633774
0.13202400505542755
0.15230199694633484
0.1770080029964447
0.20624899864196777
0.23978999257087708
0.2769719958305359
0.31667599081993103
0.3573319911956787
0.3969919979572296
0.4334610104560852
0.4644869863986969
0.487976998090744
0.502223014831543
0.5060939788818359
0.49917298555374146
0.48180699348449707
0.4550760090351105
0.42066699266433716
0.3806940019130707
0.33747199177742004
0.29329100251197815
0.25021499395370483
0.20993700623512268
0.17368699610233307
0.1422100067138672
0.11579900234937668
0.09436800330877304
0.07754799723625183
0.06478600203990936
0.055442001670598984
0.048861999064683914
0.04443499818444252
0.0416250005364418
0.039987001568078995
0.0391709990799427
0.03890899941325188
0.039007000625133514
0.03932899981737137
0.03978300094604492
0.04030599817633629
0.04091599956154823
0.04151599854230881
0.04209199920296669
0.042642999440431595
0.04317000135779381
0.04367399960756302
0.04415300115942955
0.04460899904370308
0.0450420007109642
0.045451998710632324
0.04583999887108803
0.04620499908924103
0.04654800146818161
0.046870000660419464
0.04717100039124489
0.04745199903845787
0.047717999666929245
0.04797999933362007
0.048259999603033066
0.048618000000715256
0.04917199909687042
0.05016100034117699
0.05200900137424469
0.055417999625205994
0.06142500042915344
0.07138899713754654
0.08682999759912491
0.10906700044870377
0.1386689990758896
0.17485199868679047
0.21503899991512299
0.25486698746681213
0.288796991109848
0.311286985874176
0.31821000576019287
0.30801400542259216
0.28219398856163025
0.24487599730491638
0.2016800045967102
0.15828900039196014
0.11921700090169907
0.08701899647712708
0.0614360012114048
0.03703400120139122
0.0005249999812804163
-0.06000500172376633
-0.12436699867248535
-0.12170500308275223
0.03716399893164635
0.39593198895454407
0.8533200025558472
1.1183379888534546
0.9614989757537842
0.5004749894142151
0.03843199834227562
-0.2325180023908615
-0.29061800241470337
-0.2150149941444397
-0.1139959990978241
-0.04956499859690666
-0.021733000874519348
-0.009700000286102295
-0.000299000006634742
0.011014999821782112
0.02557400055229664
0.04399000108242035
0.06666500121355057
0.09378600120544434
0.12523800134658813
0.16053800284862518
0.19877499341964722
0.2386080026626587
0.2783080041408539
0.3158549964427948
0.3490949869155884
0.37592700123786926
0.3945089876651764
0.4034560024738312
0.40199199318885803
0.39003899693489075
0.3682369887828827
0.33786898851394653
0.30073100328445435
0.25894099473953247
0.21472999453544617
0.1702439934015274
0.1273680031299591
0.08760900050401688
0.05203000083565712
0.02124200016260147
-0.004554999992251396
-0.025499999523162842
-0.04198199883103371
-0.05454700067639351
-0.06381499767303467
-0.07040800154209137
-0.0749099999666214
-0.07782900333404541
-0.07958800345659256
-0.08052200078964233
-0.08088800311088562
-0.080874003469944
-0.08061400055885315
-0.08020000159740448
-0.07969100028276443
-0.07906799763441086
-0.07843299955129623
-0.07780200242996216
-0.07717400044202805
-0.07655099779367447
-0.07592999935150146
-0.07531300187110901
-0.07469800114631653
-0.07408600300550461
-0.07347500324249268
-0.07286600023508072
-0.07225900143384933
-0.07165300101041794
-0.07104700058698654
-0.07044199854135513
-0.06983499974012375
-0.06922599673271179
-0.06860599666833878
-0.06796299666166306
-0.06725999712944031
-0.06642100214958191
-0.06529299914836884
-0.06358800083398819
-0.060809001326560974
-0.056178998202085495
-0.04859599843621254
-0.036687999963760376
-0.019009999930858612
0.0055680000223219395
0.037330999970436096
0.07517699897289276
0.11628200113773346
0.15620900690555573
0.18956699967384338
0.21115100383758545
0.2172349989414215
0.2065889984369278
0.18084199726581573
0.14404499530792236
0.1016009971499443
0.05895199999213219
0.020454000681638718
-0.011357000097632408
-0.036504000425338745
-0.05961000174283981
-0.09267999976873398
-0.1487489938735962
-0.21535000205039978
-0.23205000162124634
-0.11245100200176239
0.20161700248718262
0.6566510200500488
1.0108720064163208
0.9870190024375916
0.5909410119056702
0.09997200220823288
-0.24192699790000916
-0.36495599150657654
-0.32152900099754333
-0.21767200529575348
-0.13657300174236298
-0.09667599946260452
-0.07987900078296661
-0.06926999986171722
-0.05784099921584129
-0.043535999953746796
-0.025596000254154205
-0.0035540000535547733
0.022870000451803207
0.05369500070810318
0.08860699832439423
0.12689100205898285
0.1674100011587143
0.20861999690532684
0.24864399433135986
0.28540000319480896
0.3167650103569031
0.34078100323677063
0.3558419942855835
0.3608750104904175
0.35545700788497925
0.3398649990558624
0.3150539994239807
0.28255200386047363
0.24430400133132935
0.20247599482536316
0.15925100445747375
0.11664599925279617
0.07636400312185287
0.03970099985599518
0.007511000148952007
-0.019783999770879745
-0.042135000228881836
-0.05979299917817116
-0.07321400195360184
-0.08297500014305115
-0.0896959975361824
-0.09397999942302704
-0.09637700021266937
-0.09735900163650513
-0.09731300175189972
-0.09653999656438828
-0.09527000039815903
-0.09366899728775024
-0.09185399860143661
-0.08990400284528732
-0.08787400275468826
-0.08574499934911728
-0.08360499888658524
-0.08146800100803375
-0.07933399826288223
-0.07720299810171127
-0.07507500052452087
-0.07295099645853043
-0.07082899659872055
-0.06871099770069122
-0.06659600138664246
-0.06448499858379364
-0.062376998364925385
-0.06027299910783768
-0.05817199870944023
-0.056074000895023346
-0.053978998214006424
-0.05188300088047981
-0.04978099837899208
-0.04765599966049194
-0.04546700045466423
-0.043133001774549484
-0.040483999997377396
-0.03721499815583229
-0.032802000641822815
-0.026440000161528587
-0.017007000744342804
-0.003129000077024102
0.016606999561190605
0.0432559996843338
0.07699400186538696
0.11659900099039078
0.15915599465370178
0.20019599795341492
0.2343820035457611
0.256630003452301
0.2633660137653351
0.25349101424217224
0.22870099544525146
0.19303999841213226
0.1518460065126419
0.11047899723052979
0.0732249990105629
0.04258999973535538
0.01858999952673912
-0.0032099999953061342
-0.03446400165557861
-0.08835099637508392
-0.15428200364112854
-0.1748329997062683
-0.06495299935340881
0.2364940047264099
0.6881369948387146
1.064721941947937
1.0813649892807007
0.7077109813690186
0.21665899455547333
-0.12303999811410904
-0.2358980029821396
-0.18244899809360504
-0.07797800004482269
-0.003880999982357025
0.029751000925898552
0.044314999133348465
0.05524900183081627
0.06798800081014633
0.0840580016374588
0.10412199795246124
0.12860700488090515
0.15769599378108978
0.19123899936676025
0.22866399586200714
0.2689270079135895
0.3105120062828064
0.35148999094963074
0.3896479904651642
0.42267799377441406
0.4483970105648041
0.4649899899959564
0.47120898962020874
0.46653398871421814
0.4512310028076172
0.42633500695228577
0.3935230076313019
0.35492900013923645
0.31291401386260986
0.2698259949684143
0.2277889996767044
0.18854700028896332
0.15336699783802032
0.12301500141620636
0.09779199957847595
0.07760299742221832
0.0620650015771389
0.050609998404979706
0.04257800057530403
0.037303999066352844
0.03416699916124344
0.032625000923871994
0.03223399817943573
0.03264399990439415
0.033590998500585556
0.034883998334407806
0.0363910011947155
0.0380220003426075
0.039719000458717346
0.04149400070309639
0.04326000064611435
0.045003000646829605
0.04672199860215187
0.04841899871826172
0.05009299889206886
0.051743000745773315
0.05336900055408478
0.054972998797893524
0.05655299872159958
0.05810999870300293
0.05964300036430359
0.061152998358011246
0.06263899803161621
0.06410299986600876
0.06554599851369858
0.06697399914264679
0.06840100139379501
0.06986100226640701
0.07143399864435196
0.07328300178050995
0.07571899890899658
0.07928700000047684
0.0848499983549118
0.09362400323152542
0.1071069985628128
0.1268160045146942
0.15380600094795227
0.18804900348186493
0.22785300016403198
0.2696020007133484
0.3080829977989197
0.33745700120925903
0.35267800092697144
0.35089200735092163
0.33229300379753113
0.30008599162101746
0.25956401228904724
0.21668000519275665
0.1766269952058792
0.14283500611782074
0.11622899770736694
0.09349700063467026
0.06370799988508224
0.011758999899029732
-0.055755000561475754
-0.08103200048208237
0.027357999235391617
0.33510300517082214
0.7895780205726624
1.1332720518112183
1.0761439800262451
0.651153028011322
0.17487600445747375
-0.11657100170850754
-0.18380899727344513
-0.10863199830055237
-0.008204000070691109
0.052953001111745834
0.07810799777507782
0.08952199667692184
0.0995670035481453
0.11207900196313858
0.12818899750709534
0.148484006524086
0.17332899570465088
0.20280799269676208
0.236626997590065
0.2740370035171509
0.31379199028015137
0.3541739881038666
0.39308300614356995
0.4281960129737854
0.457179993391037
0.47793400287628174
0.48882898688316345
0.48890501260757446
0.47798600792884827
0.45671701431274414
0.4264790117740631
0.38923999667167664
0.34731999039649963
0.30315300822257996
0.25904399156570435
0.21697400510311127
0.17847199738025665
0.144554004073143
0.11572899669408798
0.09206800162792206
0.07329100370407104
0.05888399854302406
0.04820200055837631
0.0405610017478466
0.03530300036072731
0.03184499964118004
0.029696999117732048
0.028467999771237373
0.02786099910736084
0.02765900082886219
0.027708999812602997
0.02790899947285652
0.028189999982714653
0.028568999841809273
0.028943000361323357
0.02929599955677986
0.02962700091302395
0.029936999082565308
0.030226999893784523
0.030496999621391296
0.030747000128030777
0.030976999551057816
0.0311879999935627
0.031380001455545425
0.0315530002117157
0.0317079983651638
0.031846001744270325
0.03196699917316437
0.032072000205516815
0.032168999314308167
0.03226900100708008
0.0324070006608963
0.03265700116753578
0.03317800164222717
0.03427800163626671
0.03649599850177765
0.040699999779462814
0.04811900109052658
0.0602790005505085
0.07873000204563141
0.1045520007610321
0.137703999876976
0.17642100155353546
0.21695800125598907
0.2539460062980652
0.2814309895038605
0.2943600118160248
0.29002299904823303
0.2688809931278229
0.23445099592208862
0.1922750025987625
0.1484069973230362
0.1079690009355545
0.07416599988937378
0.0474729984998703
0.023514999076724052
-0.010266999714076519
-0.06793300062417984
-0.13433599472045898
-0.14040200412273407
0.007331999950110912
0.35916298627853394
0.8163999915122986
1.0785160064697266
0.914139986038208
0.4495609998703003
-0.007772000040858984
-0.26924198865890503
-0.3183169960975647
-0.23845699429512024
-0.13859499990940094
-0.0771619975566864
-0.05116099864244461
-0.03955100104212761
-0.029916999861598015
-0.0181450005620718
-0.0030189999379217625
0.01605300046503544
0.03945700079202652
0.06734800338745117
0.09956599771976471
0.13556000590324402
0.17434300482273102
0.2144870012998581
0.25418099761009216
0.2913390100002289
0.3237679898738861
0.34937000274658203
0.366347998380661
0.3734099864959717
0.3699069917201996
0.35592201352119446
0.33225399255752563
0.30034199357032776
0.26210299134254456
0.21973399817943573
0.17549699544906616
0.1315159946680069
0.08961199969053268
0.0511929988861084
0.01720700040459633
-0.011851999908685684
-0.03589100018143654
-0.05513999983668327
-0.07005400210618973
-0.08121699839830399
-0.08926700055599213
-0.09482699632644653
-0.0984639972448349
-0.10066600143909454
-0.10182800143957138
-0.1022619977593422
-0.10220000147819519
-0.10181000083684921
-0.10121099650859833
-0.10048100352287292
-0.09965900331735611
-0.09874500334262848
-0.09783200174570084
-0.09692200273275375
-0.09601300209760666
-0.09510599821805954
-0.09419900178909302
-0.09329400211572647
-0.09238900244235992
-0.09148400276899338
-0.09057900309562683
-0.08967400342226028
-0.08876799792051315
-0.08786100149154663
-0.08695299923419952
-0.08604399859905243
-0.0851299986243248
-0.08421000093221664
-0.08327099680900574
-0.08229099959135056
-0.08121400326490402
-0.07992299646139145
-0.07819399982690811
-0.07562100142240524
-0.0715399980545044
-0.064969003200531
-0.05460900068283081
-0.0389849990606308
-0.016770999878644943
0.01271199993789196
0.048921000212430954
0.08963599801063538
0.13088500499725342
0.16742199659347534
0.1937520056962967
0.20545999705791473
0.20040099322795868
0.17931799590587616
0.1456570029258728
0.10462299734354019
0.06186100095510483
0.022200999781489372
-0.011214000172913074
-0.03758599981665611
-0.060068998485803604
-0.08888900279998779
-0.13870899379253387
-0.20612600445747375
-0.2410530000925064
-0.15763899683952332
0.11495299637317657
0.5550959706306458
0.9546110033988953
1.0122369527816772
0.6657450199127197
0.16978000104427338
-0.20563599467277527
-0.3623409867286682
-0.33817601203918457
-0.23642200231552124
-0.14901100099086761
-0.1036909967660904
-0.08461599797010422
-0.07343100011348724
-0.06194600090384483
-0.04772000014781952
-0.02991499938070774
-0.008035000413656235
0.01822499930858612
0.04891899973154068
0.08376699686050415
0.12209299951791763
0.1627880036830902
0.20433099567890167
0.2448520064353943
0.282260000705719
0.314410001039505
0.33930501341819763
0.35529598593711853
0.36125999689102173
0.3567270040512085
0.3419390022754669
0.3178260028362274
0.28590598702430725
0.2481279969215393
0.2066739946603775
0.16374799609184265
0.12139300256967545
0.08133400231599808
0.04489000141620636
0.012927000410854816
-0.014123000204563141
-0.036212000995874405
-0.053592000156641006
-0.06672299653291702
-0.07618799805641174
-0.08261299878358841
-0.08660600334405899
-0.08872000128030777
-0.08942999690771103
-0.08912099897861481
-0.0880960002541542
-0.08658400177955627
-0.08474999666213989
-0.08270899951457977
-0.08054099977016449
-0.07828400284051895
-0.07593599706888199
-0.07359399646520615
-0.0712599977850914
-0.06893199682235718
-0.06661099940538406
-0.06429699808359146
-0.06199000030755997
-0.059689998626708984
-0.0573979988694191
-0.055112000554800034
-0.052834998816251755
-0.0505639985203743
-0.04830100014805794
-0.046045999974012375
-0.04379799962043762
-0.04155600070953369
-0.03931799903512001
-0.03707600012421608
-0.03480999916791916
-0.03247499838471413
-0.02997799962759018
-0.02713100053369999
-0.023592999204993248
-0.018790999427437782
-0.011858000420033932
-0.0016060000052675605
0.013380000367760658
0.03449200093746185
0.06266699731349945
0.09784100204706192
0.13844400644302368
0.1811790019273758
0.22127699851989746
0.2532989978790283
0.27234798669815063
0.27531498670578003
0.2617430090904236
0.23396800458431244
0.19649499654769897
0.15483400225639343
0.11421199887990952
0.07855000346899033
0.04982199892401695
0.02713100053369999
0.004236999899148941
-0.03235200047492981
-0.09253799915313721
-0.15331099927425385
-0.1447020024061203
0.01812100037932396
0.3764660060405731
0.8371989727020264
1.1266369819641113
1.0037330389022827
0.553862988948822
0.08982300013303757
-0.18206200003623962
-0.23695500195026398
-0.1576409935951233
-0.05611800029873848
0.0067449999041855335
0.03389099985361099
0.046813998371362686
0.05796099826693535
0.07135999947786331
0.08819799870252609
0.1090639978647232
0.13433900475502014
0.1641550064086914
0.19830599427223206
0.23617500066757202
0.2766830027103424
0.3183009922504425
0.3591119945049286
0.39694198966026306
0.4295389950275421
0.4547930061817169
0.4709550142288208
0.4768350124359131
0.4719470143318176
0.4565640091896057
0.43169599771499634
0.39897701144218445
0.36048299074172974
0.31851300597190857
0.2753629982471466
0.23312599956989288
0.19353200495243073
0.1578579992055893
0.12689800560474396
0.10098999738693237
0.08008400350809097
0.06383500248193741
0.05170999839901924
0.04307299852371216
0.03727100044488907
0.03368600085377693
0.031773000955581665
0.031078999862074852
0.031241999939084053
0.03198599815368652
0.03310900181531906
0.03446999937295914
0.035969000309705734
0.03754400089383125
0.03921100124716759
0.04086900129914284
0.042500998824834824
0.044105999171733856
0.04568399861454964
0.04723599925637245
0.0487620010972023
0.0502609983086586
0.05173400044441223
0.05318000167608261
0.05460000038146973
0.055994000285863876
0.057360999286174774
0.058701999485492706
0.06001799926161766
0.06130899861454964
0.06257899850606918
0.06383699923753738
0.06510300189256668
0.06642899662256241
0.06792300194501877
0.06979800015687943
0.0724480003118515
0.07652399688959122
0.08300899714231491
0.09321600198745728
0.10865599662065506
0.1307069957256317
0.16009199619293213
0.196275994181633
0.23698300123214722
0.27811700105667114
0.3142719864845276
0.33982598781585693
0.35033801198005676
0.3437870144844055
0.32117199897766113
0.28624001145362854
0.2444469928741455
0.20155000686645508
0.1623159945011139
0.12966999411582947
0.10393799841403961
0.08084599673748016
0.04840800166130066
-0.007230000104755163
-0.07400500029325485
-0.08923199772834778
0.03691200166940689
0.36211100220680237
0.8196529746055603
1.1449190378189087
1.068336009979248
0.6402140259742737
0.16078799962997437
-0.14389200508594513
-0.22882500290870667
-0.16415700316429138
-0.06109200045466423
0.008727000094950199
0.03978100046515465
0.0529789999127388
0.06277800351381302
